#   DataFileName=PAL30_135C_WAXS_08172017.tif
#   DataFileType=.tif
#   
#   DataFilePath=E:DATA:PAL30_08262017:
#   
#   Processed on=Wed, Jan 16, 2019,2:42:56 AM
#   Units=Arbitrary
#   SampleThickness=1
#   SampleTransmission=1
#   CorrectionFactor=1
#   SampleMeasurementTime=1
#   EmptyMeasurementTime=1
#   BackgroundMeasTime=1
#   SampleI0=1
#   EmptyI0=1
#   Nika_SampleToDetectorDistacne=1552.1
#   Nika_Wavelength=1.54
#   Nika_XrayEnergy=8.0509
#   Nika_PixelSizeX=0.075
#   Nika_PixelSizeY=0.075
#   Nika_HorizontalTilt=0
#   Nika_VerticalTilt=0
#   Nika_BeamCenterX=1540.3
#   Nika_BeamCenterY=830.17
#   Nika_BeamSizeX=0
#   Nika_BeamCenterY=830.17
#   CalibrationFormula=1*((Sa2D))
#   CurrentMaskFileName=PAL30_30C_WAXS_mask.hdf
#   QvectorMaxNumPnts=1
#   QvectorNumberPoints=1383
#   CircularAverage=1
#   PolarizationCorrection=None
#   UncertainityCalculationMethod=OldNikaMethod

0.0060065244	7	4.9497476	0.00022756745
0.00620346	3.9200001	0.77502686	0.00022756765
0.0064003952	3.3333333	0.43952283	0.00022756765
0.0065973303	3.4875	0.38886297	0.00022756765
0.0067942655	5.7244897	0.57391781	0.00022756765
0.0069912006	7.0467291	0.66463953	0.00022756745
0.0071881362	8.7704916	0.7714439	0.00022756727
0.0073850714	9.3129768	0.79298246	0.00022756727
0.0075820065	8.6620693	0.70619631	0.00022756727
0.0077789417	8.272109	0.66883165	0.00022756745
0.0079758773	7.5189872	0.58798587	0.00022756746
0.0081728119	6.4110432	0.49361837	0.00022756707
0.0083697475	5.4606743	0.40261027	0.00022756671
0.0085666822	4.9430051	0.35031536	0.00022756783
0.0087636178	4.6564102	0.32799977	0.00022756783
0.0089605534	4.0853081	0.2772696	0.00022756746
0.0091574881	3.6899564	0.24085067	0.00022756707
0.0093544237	2.9159999	0.18217252	0.00022756671
0.0095513584	2.8783269	0.17563535	0.00022756707
0.009748294	2.7169118	0.16297162	0.00022756707
0.0099452296	2.4368231	0.14489825	0.00022756595
0.010142164	2.1043165	0.12481137	0.00022756707
0.0103391	2.0673401	0.11880484	0.00022756671
0.010536035	1.8915254	0.10902266	0.00022756707
0.01073297	1.8815789	0.10692497	0.00022756783
0.010929906	1.6109325	0.090447567	0.00022756746
0.01112684	1.4824281	0.082968965	0.00022756783
0.011323776	1.379518	0.074964665	0.00022756746
0.011520711	1.2957317	0.070919842	0.00022756707
0.011717646	1.2662722	0.068266653	0.00022756707
0.011914582	1.1023391	0.059150513	0.00022756746
0.012111517	1.0695652	0.057091407	0.00022756783
0.012308452	0.94780219	0.049266044	0.00022756671
0.012505387	1	0.052778497	0.00022756783
0.012702323	0.88359791	0.045111816	0.00022756783
0.012899258	0.79088473	0.040708717	0.00022756671
0.013096193	0.73560208	0.037266806	0.00022756707
0.013293128	0.75191814	0.037679438	0.00022756671
0.013490063	0.73711342	0.037101302	0.00022756707
0.013686999	0.65441179	0.03215716	0.00022756707
0.013883934	0.60827249	0.029788969	0.00022756671
0.014080869	0.66746414	0.032426801	0.00022756707
0.014277805	0.5552941	0.026790155	0.00022756671
0.014474739	0.60283691	0.029135257	0.0002275663
0.014671675	0.5349887	0.025270199	0.00022756707
0.014868611	0.54545456	0.025841694	0.00022756671
0.015065545	0.46593407	0.021718957	0.0002275663
0.015262481	0.48712447	0.022424636	0.00022756671
0.015459416	0.46373627	0.021626171	0.00022756595
0.01565635	0.39658847	0.018197218	0.00022756707
0.015853286	0.40976647	0.01877	0.00022756554
0.016050221	0.38556701	0.017384624	0.00022756707
0.016247157	0.41093117	0.018392757	0.00022756707
0.016444093	0.354	0.015765313	0.00022756483
0.016641026	0.36746988	0.016352572	0.00022756707
0.016837962	0.33667335	0.014992858	0.00022756707
0.017034898	0.30933851	0.013557046	0.00022756554
0.017231833	0.28680688	0.0124608	0.00022756554
0.017428769	0.26375711	0.011424213	0.00022756483
0.017625703	0.27102804	0.011642026	0.00022756554
0.017822638	0.29981378	0.012871057	0.00022756554
0.018019574	0.26102942	0.011103079	0.00022756554
0.018216509	0.28284672	0.012001434	0.00022756554
0.018413445	0.24865831	0.010463977	0.00022756483
0.018610379	0.25265017	0.010557884	0.00022756554
0.018807314	0.23211169	0.0096426047	0.00022756554
0.01900425	0.22530329	0.009306184	0.00022756554
0.019201186	0.26398602	0.010967966	0.00022756554
0.019398121	0.20435511	0.0083086174	0.00022756483
0.019595055	0.20677966	0.0084639229	0.00022756554
0.019791991	0.19008264	0.0076700472	0.00022756554
0.019988926	0.21983472	0.0088797305	0.00022756554
0.020185862	0.16993465	0.0068263425	0.00022756554
0.020382797	0.19426751	0.0076981196	0.00022756483
0.020579731	0.1828479	0.0073152045	0.00022756403
0.020776667	0.18965517	0.0074652354	0.00022756403
0.020973602	0.19561815	0.0076991115	0.00022756554
0.021170538	0.1609375	0.0063193045	0.00022756403
0.021367474	0.16591252	0.0064109596	0.0002275633
0.021564407	0.1749226	0.0068407538	0.00022756403
0.021761343	0.17787743	0.00682837	0.00022756403
0.021958278	0.14630468	0.0056410893	0.00022756403
0.022155214	0.1483113	0.0056525255	0.00022756403
0.02235215	0.15552326	0.0058917147	0.0002275633
0.022549083	0.16005874	0.0060967631	0.00022756403
0.022746019	0.14184397	0.0053132353	0.00022756403
0.022942955	0.13773315	0.005188941	0.00022756403
0.02313989	0.13154173	0.0049204957	0.00022756403
0.023336826	0.11715481	0.0043452699	0.0002275633
0.02353376	0.14345992	0.005352295	0.00022756403
0.023730695	0.14111263	0.0051643178	0.00022756403
0.023927631	0.12137931	0.0044759391	0.0002275625
0.024124566	0.12064343	0.0043882695	0.00022756403
0.024321502	0.1380697	0.0050233151	0.00022756179
0.024518436	0.13422818	0.0048909336	0.0002275625
0.024715371	0.12648222	0.0045625279	0.0002275625
0.024912307	0.14531043	0.0052480726	0.0002275625
0.025109243	0.14578006	0.0051890542	0.0002275625
0.025306178	0.11384217	0.0040654	0.00022756179
0.025503112	0.094508298	0.003355454	0.0002275625
0.025700048	0.11308768	0.0040063667	0.0002275625
0.025896983	0.11195929	0.0039695944	0.0002275625
0.026093919	0.11945813	0.004167683	0.00022756097
0.026290854	0.12282878	0.0043005613	0.00022756179
0.026487788	0.11829268	0.0041059321	0.0002275625
0.026684724	0.094132029	0.0032667723	0.00022756097
0.026881659	0.10596833	0.0036767859	0.0002275625
0.027078595	0.085918851	0.0029467859	0.00022756097
0.027275531	0.098676294	0.003401079	0.00022756179
0.027472464	0.10360885	0.0035163218	0.00022756097
0.0276694	0.095744684	0.003272312	0.00022756097
0.027866336	0.099767983	0.0033774823	0.00022756097
0.028063271	0.10465116	0.0035458799	0.00022756097
0.028260207	0.087412588	0.0029654494	0.00022756026
0.028457141	0.11111111	0.0037033025	0.00022756097
0.028654076	0.081725314	0.0027341554	0.00022756097
0.028851012	0.086129755	0.0028614874	0.00022756097
0.029047947	0.082866743	0.0027542419	0.00022756097
0.029244883	0.092238471	0.0030745352	0.00022756026
0.029441817	0.078431375	0.0025699697	0.00022756097
0.029638752	0.083516486	0.0027503339	0.00022755946
0.029835688	0.097087376	0.0031711299	0.00022756097
0.030032624	0.10537634	0.0034381535	0.00022755946
0.030229559	0.085497834	0.0027954197	0.00022755875
0.030426493	0.10744681	0.003485882	0.00022755946
0.030623429	0.088391908	0.002866551	0.00022755946
0.030820364	0.099071205	0.0031648611	0.00022755946
0.0310173	0.082018927	0.0026426115	0.00022755946
0.031214235	0.096473031	0.0030905949	0.00022755946
0.031411171	0.078028746	0.0024836671	0.00022755875
0.031608105	0.083764218	0.0026779682	0.00022755571
0.031805038	0.089989886	0.0028464668	0.00022756017
0.032001976	0.086956523	0.0027480661	0.00022755875
0.03219891	0.071356781	0.0022459475	0.00022756017
0.032395847	0.1008991	0.0031726738	0.00022755875
0.032592781	0.090367429	0.0028320523	0.00022755875
0.032789715	0.090998046	0.0028311866	0.00022756017
0.032986652	0.0817734	0.0025513463	0.00022755571
0.033183586	0.065238558	0.0020210033	0.00022755713
0.033380523	0.090558767	0.0027946078	0.00022755875
0.033577457	0.097302504	0.0030039079	0.00022755571
0.033774391	0.070543371	0.0021615122	0.00022755713
0.033971328	0.080152668	0.0024609044	0.00022755571
0.034168262	0.070009463	0.0021385972	0.00022756017
0.0343652	0.071630538	0.0021844415	0.00022755571
0.034562133	0.075208917	0.0022768283	0.00022755571
0.034759067	0.064007424	0.0019353842	0.00022756017
0.034956004	0.070370369	0.0021259123	0.00022755571
0.035152938	0.075799085	0.0022761659	0.00022755713
0.035349876	0.065693431	0.0019706425	0.00022755571
0.035546809	0.079854809	0.0023919686	0.00022755571
0.035743743	0.068840578	0.0020580308	0.00022755713
0.035940681	0.073542602	0.002189609	0.00022755571
0.036137614	0.069271758	0.0020509779	0.00022755713
0.036334552	0.083481349	0.0024742421	0.00022755266
0.036531486	0.085537918	0.0025267375	0.00022755266
0.036728419	0.078483246	0.0023167296	0.00022755713
0.036925357	0.077391304	0.0022691153	0.00022755571
0.037122291	0.087749779	0.0025734834	0.00022755713
0.037319228	0.065857887	0.0019243452	0.00022755571
0.037516162	0.06955047	0.0020134097	0.00022755266
0.037713096	0.071979433	0.0020944579	0.00022755713
0.037910033	0.068994887	0.0020017202	0.00022755266
0.038106967	0.068702288	0.0019889965	0.00022755409
0.038303904	0.067510545	0.0019490675	0.00022755266
0.038500838	0.055740431	0.0015956473	0.00022755266
0.038697772	0.062809914	0.0017935365	0.00022755409
0.038894709	0.067052983	0.0019166004	0.00022755266
0.039091643	0.063689001	0.0018195737	0.00022755409
0.03928858	0.068032786	0.001935944	0.00022755266
0.039485514	0.072298944	0.00204882	0.00022755266
0.039682448	0.068237208	0.0019334968	0.00022755409
0.039879385	0.074698798	0.0021052414	0.00022755266
0.040076319	0.056000002	0.0015725427	0.00022755409
0.040273257	0.061797753	0.0017394061	0.00022754962
0.04047019	0.062848054	0.0017615288	0.00022754962
0.040667124	0.066719621	0.0018688021	0.00022755409
0.040864062	0.061767004	0.0017159844	0.00022755266
0.041060995	0.060653187	0.0016808456	0.00022755409
0.041257933	0.055382214	0.00153644	0.00022754962
0.041454867	0.075486384	0.0020950572	0.00022755266
0.0416518	0.0614786	0.0017039769	0.00022755409
0.041848738	0.061068702	0.0016762639	0.00022754962
0.042045671	0.056273766	0.0015401781	0.00022754801
0.042242609	0.05323194	0.0014576733	0.00022754657
0.042439543	0.061503418	0.0016848986	0.00022754353
0.042636476	0.074380167	0.0020281628	0.00022754801
0.042833414	0.073795177	0.0020141464	0.00022754657
0.043030348	0.073188946	0.0019902098	0.00022754801
0.043227285	0.064992614	0.0017561562	0.00022754353
0.043424219	0.066322774	0.0017901507	0.00022754353
0.043621153	0.075000003	0.0020238841	0.00022754801
0.04381809	0.049853373	0.0013392076	0.00022754353
0.044015024	0.051207021	0.0013749908	0.00022754495
0.044211961	0.073913045	0.0019800358	0.00022754353
0.044408895	0.048920862	0.0013029446	0.00022754353
0.044605829	0.063218392	0.0016849409	0.00022754495
0.044802766	0.073170729	0.0019502754	0.00022754353
0.0449997	0.048536759	0.0012867778	0.00022754495
0.045196638	0.06572438	0.0017374018	0.00022754353
0.045393571	0.05319149	0.0014073225	0.00022754353
0.045590505	0.053258583	0.0014003126	0.00022754495
0.045787442	0.054698456	0.0014394395	0.00022754048
0.045984376	0.061111111	0.0016013808	0.00022754191
0.046181314	0.061068702	0.0015997137	0.00022754353
0.046378247	0.045580111	0.0011885659	0.00022754048
0.046575181	0.068370163	0.0017865887	0.00022754191
0.046772119	0.063742287	0.0016601624	0.00022754353
0.046969052	0.057181757	0.001483096	0.00022754495
0.04716599	0.050443079	0.0013077926	0.00022754048
0.047362924	0.058625337	0.0015123623	0.00022754048
0.047559857	0.05764075	0.0014832462	0.00022754495
0.047756795	0.059771657	0.0015397945	0.00022754048
0.047953729	0.062374245	0.0016043602	0.00022754495
0.048150666	0.045786329	0.0011697612	0.00022754048
0.0483476	0.047113471	0.0012047312	0.00022754048
0.048544534	0.062868372	0.0015993817	0.00022754191
0.048741471	0.068556361	0.0017501384	0.00022753744
0.048938405	0.050162867	0.0012708989	0.00022754191
0.049135342	0.057011794	0.0014495666	0.00022754048
0.049332276	0.061568372	0.0015566439	0.00022753744
0.04952921	0.058214746	0.0014704035	0.00022753887
0.049726147	0.047711153	0.0012014182	0.00022753744
0.049923081	0.048765041	0.0012179292	0.00022754191
0.050120018	0.056265984	0.0014130576	0.00022753744
0.050316952	0.057581574	0.0014466556	0.00022753744
0.050513886	0.052698411	0.0013189124	0.00022753887
0.050710823	0.053265695	0.0013308604	0.00022753744
0.050907757	0.054003723	0.0013358092	0.00022753887
0.051104695	0.041224234	0.0010203816	0.00022753744
0.051301628	0.041198503	0.0010199035	0.00022753744
0.051498562	0.059925094	0.00148755	0.00022753887
0.0516955	0.067408785	0.0016665922	0.00022753744
0.051892433	0.050183598	0.0012318351	0.00022753887
0.052089371	0.059876543	0.0014785045	0.0002275344
0.052286305	0.045537341	0.0011118879	0.00022753744
0.052483238	0.066869304	0.0016392297	0.00022753583
0.052680176	0.066869304	0.0016389554	0.0002275344
0.052877109	0.05957447	0.0014593177	0.00022753887
0.053074047	0.057263412	0.0013963926	0.0002275344
0.053270981	0.048358209	0.0011727994	0.00022753744
0.053467914	0.059069213	0.0014334643	0.00022753887
0.053664852	0.053724054	0.0013178535	0.0002275344
0.053861786	0.068730652	0.0016986048	0.00022753583
0.054058723	0.04109589	0.0010151434	0.0002275344
0.054255657	0.056277055	0.0013891676	0.0002275344
0.054452591	0.055034395	0.0013661914	0.00022753583
0.054649528	0.054897066	0.0013610799	0.0002275344
0.054846462	0.058934171	0.0014655621	0.00022753583
0.055043399	0.04977946	0.0012404171	0.00022753136
0.055240333	0.055590652	0.0013878701	0.0002275344
0.055437267	0.054190297	0.0013498252	0.00022753583
0.055634204	0.05068836	0.0012585979	0.00022753136
0.055831138	0.057631411	0.0014396262	0.00022753279
0.056028076	0.055380743	0.001379292	0.00022753136
0.056225009	0.063843235	0.0015945076	0.00022753136
0.056421943	0.040204212	0.0010055375	0.00022753279
0.05661888	0.035197988	0.0008725205	0.00022753136
0.056815814	0.054054055	0.001345291	0.00022753279
0.057012752	0.050632913	0.0012634156	0.00022753136
0.057209685	0.039772727	0.00098964432	0.00022752832
0.057406619	0.044191919	0.0011000091	0.00022753279
0.057603557	0.047378395	0.0011804367	0.00022753136
0.05780049	0.055696204	0.0013898192	0.00022753279
0.057997428	0.051507536	0.0012799444	0.00022752832
0.058194362	0.058712121	0.0014639295	0.00022752832
0.058391295	0.058117498	0.001450263	0.00022752974
0.058588233	0.046992481	0.0011658292	0.00022752832
0.058785167	0.041772153	0.0010407964	0.00022752974
0.058982104	0.056568198	0.0014070383	0.00022752832
0.059179038	0.057160802	0.0014215016	0.00022752832
0.059375972	0.055380743	0.0013787494	0.00022752974
0.059572909	0.04887218	0.001213011	0.00022752528
0.059769843	0.053560175	0.0013339673	0.00022752974
0.05996678	0.056381661	0.0013920179	0.00022752528
0.060163714	0.045368619	0.0011286129	0.00022752528
0.060360648	0.049875312	0.00123516	0.00022752974
0.060557585	0.054477144	0.001352509	0.00022752528
0.060754519	0.04044804	0.00099789852	0.0002275267
0.060951456	0.046192259	0.0011430049	0.00022752528
0.06114839	0.052271314	0.0012935734	0.00022752528
0.061345324	0.067247823	0.0016670221	0.0002275267
0.061542261	0.060869563	0.0015071719	0.00022752528
0.061739195	0.048507463	0.0011996557	0.0002275267
0.061936133	0.05951643	0.0014723559	0.00022752528
0.062133066	0.050123762	0.0012368571	0.00022752528
0.06233	0.057230771	0.0014096925	0.00022752528
0.062526934	0.047589615	0.0011741514	0.0002275251
0.062723875	0.03287841	0.00080873066	0.00022751919
0.062920809	0.050554872	0.0012449685	0.00022752528
0.063117743	0.034717917	0.00085416908	0.00022751919
0.063314676	0.048959609	0.0012024387	0.00022751919
0.06351161	0.058032986	0.0014240018	0.00022752814
0.063708551	0.050275903	0.0012348626	0.00022751919
0.063905485	0.051915947	0.0012805861	0.00022751919
0.064102419	0.040243901	0.00098534557	0.00022751919
0.064299352	0.058175139	0.0014298812	0.00022752528
0.064496286	0.045759611	0.0011212571	0.00022752205
0.064693227	0.059538275	0.0014573721	0.00022751919
0.064890161	0.046666667	0.0011389808	0.00022751919
0.065087095	0.047037262	0.0011537649	0.00022752528
0.065284029	0.047648136	0.0011679124	0.00022752528
0.065480962	0.044188861	0.0010779938	0.00022752205
0.065677904	0.046329722	0.001127632	0.00022752528
0.065874837	0.041742288	0.0010177928	0.00022751919
0.066071771	0.060204696	0.0014686247	0.00022751919
0.066268705	0.05139057	0.0012549575	0.00022751919
0.066465639	0.041541241	0.0010110951	0.00022752205
0.06666258	0.052694611	0.0012803173	0.00022751919
0.066859514	0.046032708	0.0011241855	0.00022751919
0.067056447	0.059453033	0.0014403258	0.00022751919
0.067253381	0.050806932	0.0012327692	0.00022751919
0.067450315	0.047818292	0.0011606306	0.00022751596
0.067647256	0.04011976	0.00097314181	0.00022751919
0.06784419	0.063549161	0.0015468867	0.00022751919
0.068041123	0.04852071	0.0011709291	0.00022751311
0.068238057	0.053349141	0.0012900922	0.00022751311
0.068434991	0.043374926	0.0010471394	0.00022752205
0.068631932	0.041371159	0.00099719688	0.00022751311
0.068828866	0.042464115	0.0010295936	0.00022751311
0.0690258	0.040911749	0.00098062959	0.00022751311
0.069222733	0.0377804	0.00090919068	0.00022751311
0.069419667	0.050236408	0.0012122293	0.00022751596
0.069616608	0.053927314	0.0012970299	0.00022751311
0.069813542	0.043452732	0.0010430202	0.00022751311
0.070010476	0.04770318	0.0011490466	0.00022751311
0.07020741	0.048434731	0.0011681706	0.00022751311
0.070404343	0.046216059	0.0011024278	0.00022752205
0.070601285	0.05078809	0.0012182705	0.00022751311
0.070798218	0.047646716	0.0011402894	0.00022751311
0.070995152	0.049266864	0.0011850062	0.00022751311
0.071192086	0.054874491	0.0013173439	0.00022751311
0.071389019	0.040851552	0.00097208354	0.00022751596
0.071585961	0.05162413	0.0012350974	0.00022750701
0.071782894	0.045086704	0.0010760744	0.00022751311
0.071979828	0.038885664	0.00092878978	0.00022751311
0.072176762	0.03573487	0.00084940757	0.00022751311
0.072373696	0.059598856	0.0014183986	0.00022751596
0.072570637	0.04231884	0.0010108595	0.00022751311
0.072767571	0.037521318	0.00088642497	0.00022750701
0.072964504	0.045717593	0.0010913523	0.00022750701
0.073161438	0.045996591	0.0010880975	0.00022751311
0.073358372	0.038901601	0.00092243479	0.00022750988
0.073555313	0.047235023	0.001126049	0.00022750701
0.073752247	0.042962126	0.0010128665	0.00022751311
0.073949181	0.040525112	0.0009600654	0.00022750701
0.074146114	0.049235992	0.0011634666	0.00022751311
0.074343048	0.049629208	0.0011777503	0.00022750988
0.074539989	0.056785919	0.001345299	0.00022750701
0.074736923	0.041363891	0.00096960989	0.00022750701
0.074933857	0.043255549	0.0010236233	0.00022750701
0.07513079	0.04954955	0.001168013	0.00022750701
0.075327724	0.050112613	0.0011813935	0.0002275038
0.075524665	0.046197183	0.0010886418	0.00022750701
0.075721599	0.041759465	0.0009778213	0.00022750093
0.075918533	0.045045044	0.0010612919	0.00022750701
0.076115467	0.050923336	0.001196427	0.00022750701
0.0763124	0.04745952	0.0011137273	0.00022750988
0.076509342	0.049499445	0.001159773	0.00022750701
0.076706275	0.046085507	0.0010784125	0.00022750701
0.076903209	0.042040359	0.00098717015	0.00022750701
0.077100143	0.051239669	0.0011951762	0.00022750093
0.077297077	0.048780486	0.001140323	0.0002275038
0.077494018	0.041713014	0.00097601354	0.00022750093
0.077690952	0.049477734	0.0011513529	0.00022750093
0.077887885	0.032311976	0.00075535249	0.00022750093
0.078084819	0.044117648	0.0010222567	0.00022750093
0.078281753	0.047881123	0.001116214	0.0002275038
0.078478694	0.044028617	0.0010255672	0.00022750093
0.078675628	0.04533042	0.0010524775	0.00022750093
0.078872561	0.050165381	0.0011708125	0.00022750093
0.079069495	0.044141691	0.0010230925	0.00022750093
0.079266429	0.045280959	0.001050755	0.0002275038
0.07946337	0.041439477	0.00096016633	0.00022750093
0.079660304	0.054624122	0.0012636146	0.00022750093
0.079857238	0.04478427	0.001039544	0.00022750093
0.080054171	0.044348296	0.0010240893	0.00022750093
0.080251105	0.041416895	0.00095971889	0.0002275038
0.080448046	0.043665767	0.0010068998	0.00022749485
0.08064498	0.036402568	0.00083460932	0.00022750093
0.080841914	0.039566394	0.0009140175	0.00022750093
0.081038848	0.042918455	0.00098717352	0.00022749485
0.081235781	0.050865799	0.0011757712	0.00022749772
0.081432723	0.049626466	0.0011393039	0.00022749485
0.081629656	0.040533334	0.00092916691	0.00022749485
0.08182659	0.041778255	0.00096013141	0.00022749485
0.082023524	0.048430014	0.0011100344	0.00022749485
0.082220457	0.048102617	0.0011045111	0.00022749772
0.082417399	0.048	0.0011015292	0.00022749485
0.082614332	0.046301223	0.0010615584	0.00022749485
0.082811266	0.042485397	0.00097087922	0.00022749485
0.0830082	0.037368421	0.00085025572	0.00022749485
0.083205134	0.05179704	0.0011839148	0.00022749163
0.083402075	0.046487056	0.0010615379	0.00022749485
0.083599009	0.040979244	0.00093817333	0.00022749485
0.083795942	0.043022037	0.0009781922	0.00022748877
0.083992876	0.047145102	0.0010722276	0.00022749485
0.08418981	0.047643978	0.0010831152	0.00022749772
0.084386751	0.049712192	0.0011295817	0.00022748877
0.084583685	0.04391009	0.00099677232	0.00022749485
0.084780619	0.047891725	0.0010858485	0.00022749485
0.084977552	0.043319415	0.00098234275	0.00022748877
0.085174486	0.033092037	0.00074547413	0.00022749163
0.085371427	0.049401976	0.00111852	0.00022748877
0.085568361	0.061245497	0.0013819669	0.00022748877
0.085765295	0.044753086	0.001008215	0.00022748877
0.085962228	0.038060479	0.00086265523	0.00022748877
0.086159162	0.03861998	0.00087010418	0.00022748555
0.086356103	0.044852193	0.0010060252	0.00022748877
0.086553037	0.042607803	0.00095907983	0.00022748877
0.086749971	0.033011682	0.00073732866	0.00022748877
0.086946905	0.039609052	0.00089242356	0.00022748268
0.087143838	0.04460213	0.00099788338	0.00022749163
0.08734078	0.038755737	0.00086840318	0.00022748877
0.087537713	0.048632219	0.0010867565	0.00022748268
0.087734647	0.040465351	0.00090345799	0.00022748877
0.087931581	0.037093494	0.00082966744	0.00022748877
0.088128515	0.040683072	0.00090549741	0.00022748555
0.088325456	0.039778449	0.00088586204	0.00022748268
0.08852239	0.042025317	0.00093947671	0.00022748268
0.088719323	0.035946082	0.00079699804	0.00022748268
0.088916257	0.036573146	0.0008114932	0.00022748268
0.089113191	0.044455543	0.0009871989	0.00022748555
0.089310132	0.04145854	0.00091971934	0.00022748268
0.089507066	0.047310758	0.0010497753	0.00022748268
0.089703999	0.036706351	0.00081082003	0.00022748268
0.089900933	0.037999999	0.00084371556	0.00022748268
0.090097867	0.037383176	0.00082296348	0.00022747947
0.090294808	0.045363907	0.0010066589	0.00022748268
0.090491742	0.042920571	0.00094729848	0.00022748268
0.090688676	0.044488385	0.00098323775	0.00022748268
0.090885609	0.043435339	0.00095872645	0.0002274766
0.091082543	0.049729198	0.0010965127	0.00022748268
0.091279477	0.043777667	0.0009648251	0.00022748555
0.091476418	0.039350715	0.0008665183	0.0002274766
0.091673352	0.04296875	0.00094356423	0.00022748268
0.091870286	0.043200787	0.00095109438	0.0002274766
0.092067219	0.038687561	0.00085008104	0.0002274766
0.092264153	0.040408958	0.00088553131	0.00022747947
0.092461094	0.037560977	0.00082296983	0.0002274766
0.092658028	0.040097799	0.00088029128	0.0002274766
0.092854962	0.039187226	0.00085627573	0.0002274766
0.093051895	0.040115997	0.00087630405	0.0002274766
0.093248829	0.046624575	0.0010214971	0.00022747337
0.09344577	0.044949252	0.00098206976	0.0002274766
0.093642704	0.033527698	0.00073292648	0.00022747052
0.093839638	0.037126325	0.00080913992	0.0002274766
0.094036572	0.042809043	0.00093309552	0.0002274766
0.094233505	0.049132947	0.0010722657	0.00022747947
0.094430447	0.045977011	0.0010000668	0.00022747052
0.09462738	0.038647342	0.00084311847	0.00022747052
0.094824314	0.035868004	0.00077890488	0.00022747052
0.095021248	0.042125419	0.00091591815	0.00022747052
0.095218182	0.040456925	0.00087665004	0.00022747337
0.095415123	0.048256092	0.001048978	0.00022747052
0.095612057	0.040495474	0.00087802671	0.00022747052
0.09580899	0.041369472	0.00089604576	0.00022747052
0.096005924	0.053110048	0.0011555253	0.00022747052
0.096202858	0.049312469	0.0010682675	0.00022747337
0.096399799	0.040661938	0.00087849452	0.00022747052
0.096596733	0.039981186	0.00086147193	0.00022746444
0.096793666	0.043950852	0.00094986043	0.00022747052
0.0969906	0.042533081	0.00091889425	0.00022746444
0.097187534	0.051366635	0.0011086165	0.00022747337
0.097384475	0.041568257	0.00089768675	0.00022746444
0.097581409	0.03806391	0.00081959023	0.00022747052
0.097778343	0.040483948	0.00086754188	0.00022746444
0.097975276	0.039058823	0.00084139261	0.00022746444
0.09817221	0.039645523	0.00085016678	0.00022746729
0.098369151	0.046676096	0.001007567	0.00022746444
0.098566085	0.037054192	0.00079164363	0.00022746444
0.098763019	0.046838406	0.0010080249	0.00022746444
0.098959953	0.030989824	0.00066089834	0.00022746444
0.099156886	0.047113165	0.0010064292	0.00022746121
0.099353828	0.03267974	0.00070047996	0.00022746444
0.099550761	0.04042751	0.00086595997	0.00022745834
0.099747695	0.034578148	0.00073686388	0.00022745834
0.099944629	0.039315447	0.00084039505	0.00022745834
0.10014156	0.043218389	0.00092165265	0.00022746121
0.1003385	0.034610059	0.00073855033	0.00022745834
0.10053544	0.044954129	0.00095659355	0.00022746444
0.10073237	0.045539033	0.0009755324	0.00022745834
0.1009293	0.036205318	0.00076995743	0.00022746444
0.10112624	0.045454547	0.00096357852	0.00022746121
0.10132318	0.034007352	0.00072357978	0.00022746444
0.10152011	0.041799184	0.0008848217	0.00022745834
0.10171705	0.042524006	0.00090397568	0.00022745834
0.10191398	0.053783044	0.0011429472	0.00022745834
0.10211091	0.036546368	0.000775669	0.00022746121
0.10230786	0.041837201	0.00088698446	0.00022745834
0.10250479	0.042043399	0.00088869175	0.00022745226
0.10270172	0.034234233	0.00072118745	0.00022745226
0.10289866	0.037357632	0.00079184177	0.00022745226
0.10309559	0.033393502	0.00070420455	0.00022745512
0.10329253	0.043970987	0.00093046069	0.00022745226
0.10348947	0.046636771	0.00098213134	0.00022745834
0.1036864	0.040090092	0.00084496412	0.00022745226
0.10388333	0.043517273	0.00091668585	0.00022745226
0.10408027	0.039586145	0.00083369593	0.00022746121
0.10427721	0.047533631	0.0010012354	0.00022745226
0.10447414	0.044863168	0.00094492803	0.00022745226
0.10467108	0.04322638	0.00090750842	0.00022745226
0.10486801	0.041126508	0.00086426974	0.00022745226
0.10506494	0.042128604	0.00088198564	0.00022745512
0.10526188	0.044988863	0.0009437853	0.00022745226
0.10545882	0.052372426	0.0011031494	0.00022744617
0.10565575	0.045192733	0.0009457916	0.00022745226
0.10585269	0.045737121	0.00095876993	0.00022745226
0.10604962	0.042844523	0.00089550798	0.00022745512
0.10624656	0.04778761	0.0010003437	0.00022744617
0.10644349	0.051191527	0.0010701831	0.00022744617
0.10664043	0.047115806	0.00098366349	0.00022745226
0.10683736	0.0446705	0.00093424681	0.00022744617
0.1070343	0.04225352	0.00088115339	0.00022744904
0.10723124	0.041539133	0.00086353661	0.00022744617
0.10742817	0.046696037	0.00097488414	0.00022744617
0.1076251	0.047722343	0.00098902546	0.00022744617
0.10782204	0.048791207	0.0010178798	0.00022744617
0.10801897	0.040664624	0.00084533013	0.00022744904
0.10821591	0.045514222	0.0009472348	0.00022744617
0.10841285	0.047079336	0.00097801397	0.00022744617
0.10860978	0.046300303	0.00095797825	0.00022744009
0.10880671	0.043898158	0.00091422966	0.00022744009
0.10900365	0.044022445	0.00090884516	0.00022744904
0.10920059	0.057068743	0.0011816167	0.00022744009
0.10939752	0.045986984	0.00095327524	0.00022744009
0.10959446	0.052699786	0.0010902988	0.00022744009
0.10979139	0.04126846	0.00085482106	0.00022744009
0.10998832	0.048864122	0.0010066425	0.00022744296
0.11018527	0.053040102	0.0010965145	0.00022744009
0.1103822	0.051701851	0.0010679459	0.00022744009
0.11057913	0.049356222	0.0010177986	0.00022743401
0.11077607	0.053356282	0.0011018381	0.00022744009
0.110973	0.057069845	0.0011724235	0.00022743687
0.11116994	0.07268063	0.0014980761	0.00022743401
0.11136688	0.060813703	0.001253654	0.00022743401
0.11156381	0.073585711	0.0015126478	0.00022743401
0.11176074	0.064102568	0.0013203649	0.00022743401
0.11195768	0.072943173	0.0014971755	0.00022744296
0.11215462	0.062419839	0.0012860083	0.00022743401
0.11235155	0.072580643	0.0014904849	0.00022743401
0.11254849	0.058674548	0.0012010336	0.00022743401
0.11274542	0.074089758	0.0015199782	0.00022743401
0.11294235	0.061518881	0.0012621955	0.00022743687
0.11313929	0.056707576	0.0011621244	0.00022743401
0.11333623	0.071758285	0.0014652723	0.00022743401
0.11353316	0.057082452	0.0011691555	0.00022742792
0.1137301	0.062184874	0.0012702101	0.00022743401
0.11392703	0.064435147	0.0013131775	0.00022743079
0.11412397	0.060058799	0.0012262899	0.00022742792
0.1143209	0.062211014	0.0012711865	0.00022742792
0.11451784	0.060276266	0.001228405	0.00022742792
0.11471477	0.063365504	0.0012935003	0.00022742792
0.11491171	0.062137529	0.0012600551	0.00022743079
0.11510865	0.061769616	0.0012572749	0.00022742792
0.11530558	0.058701083	0.0011933628	0.00022742792
0.11550251	0.073191136	0.0014922089	0.00022742792
0.11569945	0.059676751	0.0012104155	0.00022742792
0.11589638	0.068680182	0.0013920967	0.00022743079
0.11609332	0.066143036	0.0013404725	0.00022742792
0.11629026	0.059602648	0.0012082201	0.00022742792
0.11648719	0.071103759	0.0014412382	0.00022742184
0.11668412	0.063583814	0.001287071	0.00022742184
0.11688106	0.064623035	0.0013108967	0.00022742471
0.117078	0.0703125	0.0014206193	0.00022742184
0.11727493	0.075317234	0.0015193489	0.00022742184
0.11747187	0.067949243	0.0013700798	0.00022742184
0.1176688	0.072570726	0.0014642312	0.00022742184
0.11786573	0.066006601	0.0013360638	0.00022742471
0.11806267	0.070641078	0.0014230893	0.00022742184
0.11825961	0.079065956	0.0015958451	0.00022742184
0.11845654	0.078264393	0.0015715507	0.00022742184
0.11865348	0.080993079	0.0016295752	0.00022742184
0.11885041	0.079065956	0.0015955864	0.00022741863
0.11904735	0.086234815	0.001730721	0.00022741576
0.11924428	0.078519121	0.001579273	0.00022741576
0.11944122	0.093446605	0.0018750875	0.00022741576
0.11963815	0.08813972	0.0017721548	0.00022741576
0.11983509	0.1060667	0.0021215561	0.00022741863
0.12003203	0.089660741	0.0017975619	0.00022741576
0.12022896	0.11336855	0.0022805419	0.00022741576
0.12042589	0.10931174	0.0021947203	0.00022741576
0.12062283	0.11663327	0.0023305139	0.00022741576
0.12081976	0.13798636	0.0027592203	0.00022741863
0.1210167	0.1488	0.002971407	0.00022741576
0.12121364	0.19628432	0.0039402316	0.00022740968
0.12141057	0.27145708	0.0054186527	0.00022740968
0.1216075	0.40232652	0.0080526518	0.00022741576
0.12180444	0.66560507	0.013273924	0.00022741254
0.12200138	1.0342766	0.020641543	0.00022740968
0.12219831	1.6709266	0.033383247	0.00022741576
0.12239525	2.5659406	0.051053967	0.00022741576
0.12259218	3.7578905	0.075099811	0.00022740968
0.12278911	5.208118	0.10387737	0.00022741254
0.12298606	6.5063543	0.12964384	0.00022740968
0.12318299	7.7735548	0.15465137	0.00022740968
0.12337992	8.9074144	0.17641079	0.00022740968
0.12357686	9.3863544	0.18692884	0.00022740968
0.12377379	9.7127619	0.19304943	0.00022740646
0.12397073	9.4563761	0.18788171	0.00022740968
0.12416767	8.9646502	0.17765807	0.00022740359
0.1243646	8.1347961	0.1610225	0.00022740359
0.12456153	7.4309936	0.14755273	0.00022740359
0.12475847	6.6402822	0.13143529	0.00022740646
0.12495541	5.919323	0.11741456	0.00022739463
0.12515233	5.0938234	0.10069944	0.00022740323
0.12534928	4.3281431	0.085375458	0.00022739751
0.12554622	3.5479076	0.070146866	0.00022739751
0.12574315	2.9144967	0.057441488	0.00022739751
0.12594008	2.3278625	0.046003856	0.00022739751
0.12613702	1.7994559	0.035463199	0.00022740968
0.12633395	1.3364522	0.026379298	0.00022740968
0.12653089	0.94035631	0.01849925	0.00022739751
0.12672782	0.6796754	0.013355155	0.00022739751
0.12692475	0.53154206	0.010484072	0.00022739751
0.12712169	0.431853	0.0084457407	0.00022740323
0.12731864	0.3608087	0.0071100914	0.00022739751
0.12751557	0.3339746	0.0065468382	0.00022739751
0.1277125	0.30807692	0.0060377568	0.00022739751
0.12790944	0.28930089	0.0056814458	0.00022739751
0.12810637	0.27604768	0.0054084137	0.00022739751
0.1283033	0.26523572	0.005188725	0.00022739751
0.12850024	0.25948641	0.0050757835	0.00022739751
0.12869717	0.22409178	0.0043779849	0.00022738535
0.12889411	0.22013062	0.004310308	0.00022739751
0.12909104	0.20540129	0.0040016193	0.00022740323
0.12928799	0.20935583	0.004095363	0.00022739751
0.12948492	0.19022357	0.0036987418	0.00022739751
0.12968186	0.18991211	0.0037081041	0.00022738535
0.12987879	0.19535415	0.0038080441	0.00022738535
0.13007572	0.17063943	0.0033152103	0.00022738535
0.13027266	0.17770167	0.0034622645	0.00022738535
0.13046959	0.18065004	0.003507772	0.00022738535
0.13066652	0.15585893	0.003031106	0.00022738535
0.13086346	0.15954632	0.0030981607	0.00022739751
0.13106039	0.14853713	0.0028729383	0.00022740323
0.13125734	0.16844106	0.003280449	0.00022738535
0.13145427	0.14537941	0.0028139155	0.00022738535
0.13165121	0.14613935	0.0028321014	0.00022738535
0.13184814	0.15773699	0.0030492395	0.00022738535
0.13204508	0.13128282	0.0025386291	0.00022738535
0.13224201	0.13595167	0.0026382308	0.00022738535
0.13243894	0.13004485	0.0025100803	0.00022738535
0.13263588	0.13450074	0.0025923781	0.00022738535
0.13283281	0.1275243	0.0024622285	0.00022738535
0.13302974	0.11489521	0.0022188453	0.00022739106
0.13322669	0.10820895	0.0020864978	0.00022738535
0.13342363	0.12638992	0.0024295065	0.00022738535
0.13362056	0.1359079	0.0026148723	0.00022738535
0.13381749	0.1241148	0.0023920385	0.00022737318
0.13401443	0.12648809	0.0024356458	0.00022737318
0.13421136	0.11762523	0.0022620533	0.00022738535
0.1344083	0.10759027	0.0020614378	0.00022737318
0.13460523	0.11382114	0.0021842609	0.00022737318
0.13480216	0.11375464	0.0021891561	0.00022737318
0.1349991	0.10481481	0.0020130593	0.0002273789
0.13519605	0.1141919	0.0021773227	0.00022737318
0.13539298	0.10144391	0.0019480716	0.00022737318
0.13558991	0.11391941	0.0021764687	0.00022737318
0.13578685	0.095185593	0.0018207012	0.00022737318
0.13598378	0.1105822	0.0021125048	0.00022737318
0.13618071	0.10346097	0.0019813578	0.00022737318
0.13637765	0.10582204	0.0020209923	0.00022737318
0.13657458	0.09791743	0.0018679389	0.00022737318
0.13677152	0.10167638	0.0019371581	0.00022737318
0.13696845	0.092659883	0.001762322	0.00022737318
0.13716538	0.094194964	0.0017960168	0.0002273789
0.13736233	0.091840468	0.0017529703	0.00022737318
0.13755926	0.10115607	0.0019188614	0.00022737318
0.1377562	0.095411509	0.0018169922	0.00022737318
0.13795313	0.088896953	0.0016897469	0.00022736102
0.13815007	0.085951604	0.001629681	0.00022736102
0.138347	0.089195065	0.001694366	0.00022737318
0.13854393	0.088489212	0.0016744017	0.00022737318
0.13874087	0.09018182	0.0017158967	0.00022736102
0.1389378	0.095306858	0.0018072041	0.00022736102
0.13913473	0.084915802	0.0016036622	0.00022736673
0.13933168	0.096333571	0.0018226679	0.00022737318
0.13952862	0.089048475	0.0016838134	0.00022737318
0.13972555	0.083575584	0.0015893927	0.00022736102
0.13992248	0.083392732	0.0015706246	0.00022736102
0.14011942	0.080315523	0.0015170161	0.00022736102
0.14031635	0.074034333	0.0013966539	0.00022737318
0.14051329	0.079200856	0.0014923606	0.00022736102
0.14071022	0.089702189	0.0016954369	0.00022736102
0.14090715	0.085046068	0.0015969953	0.00022736102
0.14110409	0.080685467	0.0015207166	0.00022736673
0.14130104	0.082558967	0.0015569387	0.00022736102
0.14149797	0.082211196	0.0015438495	0.00022736102
0.1416949	0.077332385	0.0014528716	0.00022734885
0.14189184	0.073498234	0.0013781385	0.00022736102
0.14208877	0.067857146	0.0012788725	0.00022736102
0.1422857	0.087557606	0.0016443263	0.00022736102
0.14248264	0.076518074	0.0014300721	0.00022736102
0.14267957	0.06631206	0.0012451044	0.00022736102
0.14287651	0.071704745	0.0013405243	0.00022736102
0.14307344	0.08103326	0.0015207658	0.00022735457
0.14327039	0.083977513	0.0015706853	0.00022736102
0.14346732	0.077762142	0.0014549603	0.00022734885
0.14366426	0.079326078	0.0014826764	0.00022734885
0.14386119	0.071253069	0.0013313484	0.00022736102
0.14405812	0.073204905	0.001366381	0.00022734885
0.14425506	0.063480988	0.0011821269	0.00022734885
0.14445199	0.07295686	0.0013630331	0.00022734885
0.14464892	0.075816073	0.0014169746	0.00022734885
0.14484586	0.064303093	0.0011953837	0.00022734885
0.14504279	0.067294285	0.0012533314	0.00022735457
0.14523974	0.06357982	0.0011785085	0.00022734885
0.14543667	0.07576289	0.0014112077	0.00022733668
0.14563361	0.069420338	0.001285494	0.00022734885
0.14583054	0.0663886	0.0012300919	0.00022734885
0.14602748	0.069180213	0.0012793794	0.00022734885
0.14622441	0.067843542	0.0012587847	0.00022733668
0.14642134	0.0666897	0.0012363439	0.00022734885
0.14661828	0.061639119	0.0011404242	0.00022733668
0.14681521	0.075216636	0.0013966903	0.00022733668
0.14701214	0.066229731	0.0012264356	0.0002273424
0.14720909	0.068894245	0.0012752111	0.00022733668
0.14740603	0.05101689	0.00094376324	0.00022733668
0.14760296	0.068460487	0.0012601216	0.00022733668
0.14779989	0.061660353	0.0011406551	0.00022733668
0.14799683	0.071305543	0.0013201126	0.00022733668
0.14819376	0.066277474	0.0012246324	0.00022733668
0.1483907	0.065388568	0.0012064986	0.00022733668
0.14858763	0.057522126	0.0010577798	0.00022733668
0.14878456	0.062864996	0.0011617589	0.00022733668
0.1489815	0.062711865	0.0011513171	0.0002273424
0.14917845	0.061669506	0.0011349516	0.00022733668
0.14937538	0.05627558	0.0010358943	0.00022733668
0.14957231	0.063325435	0.0011619991	0.00022733668
0.14976925	0.055136986	0.0010169612	0.00022733668
0.14996618	0.057633974	0.0010545091	0.00022733668
0.15016311	0.056949154	0.0010451981	0.00022732452
0.15036005	0.04896294	0.00089947833	0.00022732452
0.15055698	0.05929919	0.001084993	0.00022733668
0.15075392	0.063222297	0.0011621515	0.00022733668
0.15095085	0.071452536	0.0012969538	0.00022733024
0.1511478	0.078814417	0.001437992	0.00022732452
0.15134473	0.066621579	0.001215864	0.00022733668
0.15154167	0.062059712	0.0011332362	0.00022732452
0.1517386	0.065246791	0.0011961417	0.00022732452
0.15193553	0.060281314	0.0010995907	0.00022732452
0.15213247	0.058487397	0.0010690093	0.00022733668
0.1523294	0.053637277	0.00097873155	0.00022732452
0.15252633	0.052649118	0.00095780386	0.00022732452
0.15272327	0.05687521	0.0010369794	0.00022732452
0.1529202	0.058391724	0.0010633919	0.00022733024
0.15311715	0.058014754	0.0010591026	0.00022732452
0.15331408	0.056164838	0.0010207025	0.00022732452
0.15351102	0.056848403	0.0010333405	0.00022732452
0.15370795	0.053910151	0.00098026334	0.00022731235
0.15390489	0.054242928	0.00098629948	0.00022732452
0.15410182	0.052265961	0.00094732788	0.00022732452
0.15429875	0.048837211	0.00088690134	0.00022732452
0.15449569	0.055444889	0.0010071455	0.00022731235
0.15469262	0.053937789	0.00097802479	0.00022731235
0.15488955	0.059288539	0.0010727027	0.00022731809
0.1550865	0.046113309	0.00083348923	0.00022732452
0.15528344	0.050033133	0.00090763683	0.00022731235
0.15548037	0.051672738	0.00093706953	0.00022731235
0.1556773	0.05442623	0.00098233321	0.00022731235
0.15587424	0.057331137	0.001037635	0.00022731235
0.15607117	0.054503918	0.00098154217	0.00022731235
0.1562681	0.056709528	0.001026544	0.00022731235
0.15646504	0.055519056	0.0010028643	0.00022732452
0.15666197	0.054283846	0.00097848056	0.00022731235
0.15685891	0.047074206	0.00084780861	0.00022731809
0.15705585	0.055791192	0.0010041273	0.00022731235
0.15725279	0.049770791	0.00089717028	0.00022731235
0.15744972	0.042912874	0.00077039265	0.00022731235
0.15764666	0.049804688	0.00089540513	0.00022731235
0.15784359	0.048196722	0.00086938788	0.00022731235
0.15804052	0.044747081	0.00080237398	0.00022731235
0.15823746	0.049853373	0.00089660269	0.00022731235
0.15843439	0.055698648	0.00099604169	0.00022731235
0.15863132	0.058041506	0.0010414859	0.00022730019
0.15882826	0.056351792	0.0010135466	0.00022731809
0.15902521	0.057530705	0.0010309184	0.00022730019
0.15922214	0.059280854	0.0010635691	0.00022730019
0.15941907	0.051635664	0.0009211711	0.00022731235
0.15961601	0.062156036	0.001114784	0.00022730019
0.15981294	0.051191244	0.00091527734	0.00022730019
0.16000988	0.053766903	0.00096145552	0.00022730019
0.16020681	0.058937199	0.0010539844	0.00022730019
0.16040374	0.053863417	0.00096119533	0.00022730019
0.16060068	0.053513862	0.00095755863	0.00022730019
0.16079761	0.047527909	0.00084547716	0.00022730592
0.16099456	0.050079744	0.0008908023	0.00022730019
0.16119149	0.050209206	0.00089761172	0.00022730019
0.16138843	0.055644389	0.0009917143	0.00022730019
0.16158536	0.046139058	0.0008225487	0.00022730019
0.16178229	0.048617732	0.00086324941	0.00022728802
0.16197923	0.046266753	0.00082298229	0.00022728802
0.16217616	0.043229498	0.00076746673	0.00022728802
0.1623731	0.05062082	0.00089969719	0.00022728802
0.16257003	0.054903205	0.00097451644	0.00022728802
0.16276696	0.054955527	0.00097627129	0.00022730592
0.16296391	0.047331639	0.00084035931	0.00022728802
0.16316085	0.046820626	0.00082901388	0.00022730019
0.16335778	0.053147737	0.00094176381	0.00022728802
0.16355471	0.039710052	0.0007015554	0.00022728802
0.16375165	0.054874111	0.00098231935	0.00022728802
0.16394858	0.053302813	0.0009601842	0.00022728802
0.16414551	0.045706823	0.00082215306	0.00022728802
0.16434245	0.047587574	0.00086154894	0.00022728802
0.16453938	0.045877658	0.00083280134	0.00022728802
0.16473632	0.052789845	0.00096122024	0.00022729376
0.16493326	0.051549867	0.00094259932	0.00022728802
0.1651302	0.046293192	0.0008442768	0.00022727586
0.16532713	0.05506156	0.0010145989	0.00022728802
0.16552407	0.040961407	0.00075008738	0.00022727586
0.165721	0.038983051	0.00071391161	0.00022728802
0.16591793	0.046000686	0.00084869069	0.00022727586
0.16611487	0.044909153	0.00082778931	0.00022727586
0.1663118	0.043402776	0.00080482929	0.00022728802
0.16650873	0.041938812	0.00077352079	0.00022728802
0.16670567	0.042369962	0.00078279333	0.00022728159
0.16690262	0.048627995	0.00090245798	0.00022727586
0.16709955	0.040055729	0.00074386765	0.00022727586
0.16729648	0.049157303	0.00091728161	0.00022727586
0.16749342	0.057103064	0.0010619484	0.00022727586
0.16769035	0.041622944	0.00077447033	0.00022727586
0.16788729	0.046257064	0.00086528924	0.00022727586
0.16808422	0.053894296	0.0010013824	0.00022727586
0.16828115	0.036131773	0.0006764229	0.00022727586
0.16847809	0.043905865	0.00081897055	0.00022726369
0.16867502	0.041905444	0.00078911852	0.00022728159
0.16887197	0.044341967	0.00083109661	0.00022727586
0.1690689	0.046257064	0.00086518732	0.00022726369
0.16926584	0.042643923	0.0007997753	0.00022727586
0.16946277	0.042735044	0.00080194609	0.00022727586
0.1696597	0.044588279	0.0008412535	0.00022726369
0.16985664	0.039543997	0.000742289	0.00022726369
0.17005357	0.040014289	0.00075241795	0.00022727586
0.17025051	0.043118935	0.00081346254	0.00022726369
0.17044744	0.041591968	0.00078400742	0.00022726369
0.17064437	0.041801803	0.00078988937	0.00022726943
0.17084132	0.04175666	0.00078849168	0.00022727586
0.17103826	0.053187612	0.0010112515	0.00022726369
0.17123519	0.044154905	0.00083569862	0.00022726369
0.17143212	0.049333815	0.00093176705	0.00022726369
0.17162906	0.035468694	0.00067087309	0.00022726369
0.17182599	0.045470949	0.00085992453	0.00022726369
0.17202292	0.04197349	0.00080144434	0.00022726369
0.17221986	0.034119781	0.00064595829	0.00022726369
0.17241679	0.045205981	0.0008592488	0.00022726369
0.17261373	0.046299674	0.00088020373	0.00022725726
0.17281067	0.045140155	0.00085731613	0.00022726369
0.17300761	0.035216436	0.00067073363	0.00022726369
0.17320454	0.04118076	0.00078181049	0.00022725153
0.17340147	0.041728213	0.00079764362	0.00022725153
0.17359841	0.034279395	0.00065408513	0.00022725153
0.17379534	0.04039662	0.00077024329	0.00022726369
0.17399228	0.038503852	0.00073320483	0.00022726369
0.17418921	0.040322579	0.00076786976	0.00022725153
0.17438614	0.033494603	0.00064219959	0.00022725153
0.17458308	0.031342182	0.00059781724	0.00022725726
0.17478003	0.038134024	0.0007296229	0.00022725153
0.17497696	0.03918669	0.00074969005	0.00022725153
0.17517389	0.042248346	0.0008054123	0.00022725153
0.17537083	0.053952791	0.001040088	0.00022723936
0.17556776	0.044313148	0.00084743439	0.00022723936
0.17576469	0.043591656	0.00083729177	0.00022723936
0.17596163	0.045590434	0.00087726372	0.00022725153
0.17615856	0.042300556	0.00081064209	0.00022725153
0.1763555	0.043915149	0.0008430765	0.00022725153
0.17655243	0.03971789	0.0007610399	0.00022724509
0.17674938	0.054845981	0.0010583688	0.00022723936
0.17694631	0.051368579	0.00099054317	0.00022723936
0.17714325	0.043022823	0.00082753628	0.00022725153
0.17734018	0.047315057	0.00091265433	0.00022723936
0.17753711	0.051320195	0.00098522287	0.00022723936
0.17773405	0.039819684	0.00076730875	0.00022723936
0.17793098	0.047547169	0.00091961306	0.00022723936
0.17812791	0.051031895	0.00098422228	0.00022723936
0.17832485	0.038736366	0.00074698019	0.00022723936
0.17852178	0.038012795	0.00073320378	0.00022724509
0.17871873	0.033220083	0.00064138591	0.00022723936
0.17891566	0.041760724	0.00080591033	0.00022723936
0.1791126	0.038156405	0.0007375094	0.00022722721
0.17930953	0.035485089	0.00068519922	0.00022723936
0.17950647	0.035253979	0.00068170071	0.00022723936
0.1797034	0.044990547	0.00087010098	0.00022723936
0.17990033	0.029800076	0.00057474541	0.00022723936
0.18009727	0.040304184	0.00078170886	0.00022722721
0.1802942	0.039000377	0.00075441494	0.00022722721
0.18049113	0.03444317	0.00066942471	0.00022723294
0.18068808	0.037893143	0.00073333376	0.00022722721
0.18088502	0.039029937	0.00075541693	0.00022722721
0.18108195	0.041539636	0.00080632116	0.00022722721
0.18127888	0.03876853	0.00075166539	0.00022722721
0.18147582	0.040839694	0.00079351326	0.00022722721
0.18167275	0.038694993	0.00074901723	0.00022722721
0.18186969	0.040229887	0.00078270218	0.00022722721
0.18206662	0.03642638	0.00070886046	0.00022722721
0.18226355	0.0333081	0.00064359984	0.00022721505
0.18246049	0.032604527	0.00063447794	0.00022723294
0.18265744	0.030164184	0.00058521744	0.00022721505
0.18285437	0.044965412	0.00087751058	0.00022722721
0.1830513	0.032320123	0.00062958436	0.00022722721
0.18324824	0.028952381	0.00056127249	0.00022721505
0.18344517	0.040353574	0.00078667601	0.00022721505
0.1836421	0.026457055	0.00051352213	0.00022721505
0.18383904	0.040384617	0.00078743952	0.00022721505
0.18403597	0.039584935	0.00077158905	0.00022721505
0.18423291	0.043863025	0.0008559745	0.00022721505
0.18442984	0.047655948	0.00093353167	0.00022722078
0.18462679	0.039877299	0.00077673554	0.00022721505
0.18482372	0.036251444	0.00070784282	0.00022721505
0.18502066	0.038816296	0.00075642631	0.00022721505
0.18521759	0.051044084	0.00099933695	0.00022721505
0.18541452	0.048412085	0.00094806642	0.00022721505
0.18561146	0.037794061	0.00073792646	0.00022721505
0.18580839	0.045104086	0.00088111853	0.00022721505
0.18600532	0.040650405	0.00079544605	0.00022720288
0.18620226	0.041909195	0.00082104123	0.00022721505
0.18639919	0.042215336	0.00082649954	0.00022722078
0.18659614	0.039534885	0.00077406579	0.00022720288
0.18679307	0.030421216	0.00059643906	0.00022720288
0.18699001	0.030537302	0.00059611065	0.00022720288
0.18718694	0.035394788	0.00069400261	0.00022720288
0.18738388	0.034946237	0.00068043417	0.00022720288
0.18758081	0.038446449	0.00075703819	0.00022721505
0.18777774	0.037699185	0.00073879864	0.00022720288
0.18797468	0.042834889	0.00084088987	0.00022720288
0.18817161	0.041309431	0.00081070187	0.00022719071
0.18836854	0.039860681	0.00077966641	0.00022720861
0.18856549	0.040125884	0.00079102808	0.00022719071
0.18876243	0.048267808	0.00094789406	0.00022720288
0.18895936	0.035477582	0.00069601374	0.00022720288
0.18915629	0.039077766	0.00076776091	0.00022719071
0.18935323	0.042951971	0.00084419921	0.00022719071
0.18955016	0.036877207	0.00072558632	0.00022720288
0.1897471	0.035755929	0.00070019008	0.00022719071
0.18994403	0.03403756	0.00066860765	0.00022720288
0.19014096	0.034265459	0.00067533477	0.00022719071
0.1903379	0.035811599	0.0007022465	0.00022719646
0.19053484	0.027963765	0.00055037305	0.00022719071
0.19073178	0.029205607	0.00057206705	0.00022719071
0.19092871	0.031471282	0.0006198234	0.00022719071
0.19112565	0.03833992	0.0007573897	0.00022719071
0.19132258	0.042478565	0.00083374587	0.00022719071
0.19151951	0.032690037	0.00064430328	0.00022719071
0.19171645	0.037706207	0.00074270851	0.00022719071
0.19191338	0.033871602	0.00066759769	0.00022717856
0.19211031	0.032156862	0.00063255336	0.00022719071
0.19230725	0.036513545	0.00071881671	0.00022719646
0.1925042	0.038507342	0.00076317741	0.00022719071
0.19270113	0.040519275	0.00079891901	0.00022719071
0.19289806	0.033477746	0.00066023291	0.00022719071
0.193095	0.031335682	0.00061582128	0.00022717856
0.19329193	0.038904328	0.00077019789	0.00022719071
0.19348887	0.041534811	0.0008213984	0.00022717856
0.1936858	0.037357453	0.00073621509	0.00022717856
0.19388273	0.036700867	0.00072469551	0.00022717856
0.19407967	0.040348101	0.00079791958	0.00022717856
0.1942766	0.037465125	0.00074300915	0.0002271843
0.19447355	0.030516433	0.0005993417	0.00022717856
0.19467048	0.03369005	0.0006660567	0.00022717856
0.19486742	0.03085443	0.00060922635	0.0002271664
0.19506435	0.034962256	0.00069277495	0.0002271664
0.19526128	0.036697246	0.00072854816	0.0002271664
0.19545822	0.034077555	0.0006699661	0.0002271664
0.19565515	0.035242289	0.00070084102	0.0002271664
0.19585209	0.045634922	0.00090452802	0.0002271664
0.19604902	0.038796518	0.00076707907	0.0002271664
0.19624595	0.033864543	0.0006710501	0.00022717213
0.1964429	0.031126872	0.00061355898	0.00022717856
0.19663984	0.033253204	0.00066122133	0.0002271664
0.19683677	0.033583563	0.00066280772	0.0002271664
0.1970337	0.036341853	0.00072142819	0.0002271664
0.19723064	0.036551449	0.0007241235	0.0002271664
0.19742757	0.037331216	0.00073970668	0.0002271664
0.1976245	0.034122843	0.00067950576	0.00022715423
0.19782144	0.033254158	0.00065735955	0.0002271664
0.19801837	0.039137378	0.00077753974	0.0002271664
0.19821531	0.035899483	0.00071251096	0.00022715998
0.19841225	0.042197451	0.00083766499	0.0002271664
0.19860919	0.03042434	0.00060409011	0.00022715423
0.19880612	0.034879111	0.00069012435	0.00022715423
0.19900306	0.034177724	0.0006806684	0.00022715423
0.19919999	0.037495013	0.00074398395	0.00022715423
0.19939692	0.033864543	0.0006710501	0.00022715423
0.19959386	0.036290321	0.00072417984	0.0002271664
0.19979079	0.033837579	0.00067071937	0.00022715423
0.19998772	0.035270542	0.00070195936	0.00022715423
0.20018466	0.032695375	0.00064870686	0.00022715998
0.20038161	0.039002813	0.00077753817	0.00022715423
0.20057854	0.038815524	0.00077161141	0.00022715423
0.20077547	0.03555733	0.00070640608	0.00022715423
0.20097241	0.028997181	0.00057764736	0.00022715423
0.20116934	0.029153354	0.00057838217	0.00022715423
0.20136628	0.035010062	0.00069784361	0.00022714208
0.20156321	0.024419535	0.00048439694	0.00022715423
0.20176014	0.033051189	0.00065853127	0.00022714208
0.20195708	0.03042434	0.00060409011	0.00022715423
0.20215401	0.027276374	0.00054189347	0.00022715998
0.20235096	0.029802658	0.0005933845	0.00022714208
0.20254789	0.032412965	0.0006436074	0.00022714208
0.20274483	0.033265721	0.00066535582	0.00022714208
0.20294176	0.028411364	0.00056364178	0.00022714208
0.20313869	0.037995148	0.00075900822	0.00022714208
0.20333563	0.025454545	0.0005066403	0.00022714208
0.20353256	0.037833534	0.00075008249	0.00022712992
0.2037295	0.032493908	0.00065038545	0.00022712992
0.20392643	0.030036043	0.00059664232	0.00022714208
0.20412336	0.024756493	0.00049418828	0.00022714782
0.20432031	0.027408304	0.00054583029	0.00022714208
0.20451725	0.02606255	0.0005170792	0.00022714208
0.20471418	0.024776604	0.00049465522	0.00022712992
0.20491111	0.025189923	0.00049952813	0.00022714208
0.20510805	0.036164161	0.00072475424	0.00022712992
0.20530498	0.029483037	0.00058822223	0.00022712992
0.20550191	0.032918505	0.00065545854	0.00022712992
0.20569885	0.03510204	0.0007046946	0.00022712992
0.20589578	0.034482758	0.0006855618	0.00022712992
0.20609272	0.031364564	0.00062826561	0.00022713565
0.20628966	0.035872631	0.00071564101	0.00022712992
0.2064866	0.028397566	0.00056751369	0.00022711777
0.20668353	0.03495935	0.00070020958	0.00022712992
0.20688047	0.031829171	0.00063423725	0.00022712992
0.2070774	0.038492706	0.0007702054	0.00022711777
0.20727433	0.031413611	0.0006257607	0.00022711777
0.20747127	0.026883909	0.00053793908	0.00022711777
0.2076682	0.02965069	0.00059302128	0.00022712992
0.20786513	0.037186742	0.00074361986	0.00022712992
0.20806207	0.038273614	0.00076745678	0.0002271235
0.20825902	0.030278563	0.00060377503	0.00022711777
0.20845595	0.03178484	0.00063656835	0.00022711777
0.20865288	0.031111112	0.00062077091	0.00022711777
0.20884982	0.034708045	0.00069667207	0.00022711777
0.20904675	0.037021969	0.00074204948	0.00022711777
0.20924369	0.034077078	0.00068171829	0.0002271056
0.20944062	0.030376671	0.0006067123	0.00022711777
0.20963755	0.029590596	0.00059110636	0.00022711777
0.20983449	0.03125	0.00062907161	0.00022711777
0.21003142	0.030438311	0.00060856022	0.00022711133
0.21022837	0.028501628	0.00057063642	0.00022711777
0.2104253	0.033007335	0.00066129147	0.00022711777
0.21062224	0.034663443	0.00069143175	0.0002271056
0.21081917	0.035434693	0.00071444316	0.0002271056
0.2110161	0.029554656	0.00059025467	0.0002271056
0.21121304	0.026058631	0.00052115502	0.0002271056
0.21140997	0.023644516	0.00047278919	0.0002271056
0.2116069	0.028594771	0.00057319843	0.0002271056
0.21180384	0.031927958	0.00064130122	0.0002271056
0.21200077	0.027070707	0.00053956371	0.00022711133
0.21219772	0.032510288	0.00065491977	0.00022709343
0.21239465	0.03245686	0.00065309345	0.0002271056
0.21259159	0.033712428	0.00067526533	0.0002271056
0.21278852	0.037959184	0.00076219917	0.0002271056
0.21298546	0.032061689	0.00064120075	0.00022709343
0.21318239	0.031765677	0.00064046751	0.00022709343
0.21337932	0.030438311	0.00060877996	0.00022709343
0.21357626	0.034327749	0.0006893542	0.0002271056
0.21377319	0.021873711	0.00043945032	0.0002271056
0.21397012	0.036630038	0.00073428178	0.00022709918
0.21416707	0.029423784	0.000590212	0.00022709343
0.21436401	0.030574806	0.00061243749	0.00022709343
0.21456094	0.03492194	0.00070262945	0.00022709343
0.21475787	0.025041051	0.00050259673	0.00022708128
0.21495481	0.028606458	0.00057366892	0.00022709343
0.21515174	0.035231464	0.00070869311	0.00022709343
0.21534868	0.034383953	0.00069075025	0.00022708128
0.21554561	0.029230136	0.00058842212	0.00022709343
0.21574254	0.028186275	0.00056492985	0.00022708128
0.21593948	0.031275719	0.00062962709	0.00022709918
0.21613643	0.027914613	0.00056102662	0.00022708128
0.21633336	0.031980321	0.00064266514	0.00022708128
0.21653029	0.027115859	0.00054517144	0.00022708128
0.21672723	0.020399837	0.00040783017	0.00022709343
0.21692416	0.021443298	0.00043051509	0.00022708128
0.21712109	0.032032855	0.00064435718	0.00022708128
0.21731803	0.027104722	0.0005447084	0.00022708128
0.21751496	0.03211198	0.00064707018	0.00022708128
0.2177119	0.030957229	0.0006201418	0.00022708128
0.21790883	0.031574573	0.00063833734	0.00022708702
0.21810578	0.024509804	0.0004909134	0.00022708128
0.21830271	0.035537191	0.00071774243	0.00022708128
0.21849965	0.039917696	0.00080479973	0.00022706912
0.21869658	0.035188217	0.0007070009	0.00022708128
0.21889351	0.033582091	0.0006788515	0.00022706912
0.21909045	0.038918477	0.00078302139	0.00022706912
0.21928738	0.023524556	0.00047320145	0.00022706912
0.21948431	0.027640264	0.00055680977	0.00022706912
0.21968125	0.023427866	0.00046969543	0.00022706912
0.21987818	0.033842344	0.00068262976	0.00022707487
0.22007513	0.031927958	0.0006409802	0.00022706912
0.22027206	0.035669848	0.000720974	0.00022706912
0.220469	0.034482758	0.00069333101	0.00022706912
0.22066593	0.035182118	0.00071119599	0.00022705697
0.22086287	0.036228903	0.00073009793	0.00022705697
0.2210598	0.032550473	0.00065602805	0.00022705697
0.22125673	0.035581298	0.00071927637	0.00022705697
0.22145367	0.029752066	0.00060000073	0.00022705697
0.2216506	0.030578513	0.00061716698	0.00022706912
0.22184753	0.030864198	0.00062115438	0.00022707487
0.22204448	0.026970955	0.00054474495	0.00022705697
0.22224142	0.025990099	0.00052338705	0.00022705697
0.22243835	0.025979381	0.00052306335	0.00022705697
0.22263528	0.03233831	0.00065337872	0.00022705697
0.22283222	0.029605264	0.00059579831	0.00022704482
0.22302915	0.032472938	0.00065779302	0.00022705697
0.22322609	0.026022306	0.00052462914	0.00022704482
0.22342302	0.028771065	0.00057874824	0.00022704482
0.22361995	0.03237858	0.00065470912	0.00022705697
0.22381689	0.028488852	0.00057442003	0.0002270627
0.22401384	0.032150313	0.00065213698	0.00022704482
0.22421077	0.031687241	0.00063820579	0.00022704482
0.2244077	0.02815735	0.00056836125	0.00022704482
0.22460464	0.036620889	0.00074275775	0.00022704482
0.22480157	0.033675566	0.00067718001	0.00022704482
0.2249985	0.033542976	0.00068138231	0.00022704482
0.22519544	0.032377049	0.00065089721	0.00022704482
0.22539237	0.04158004	0.0008431949	0.00022704482
0.22558931	0.028858218	0.00058537902	0.00022704482
0.22578624	0.030649776	0.00061480276	0.00022703838
0.22598319	0.027905039	0.00056457485	0.00022703265
0.22618012	0.030591153	0.00061709178	0.00022704482
0.22637706	0.028463792	0.00057741208	0.00022704482
0.22657399	0.026108578	0.00052670023	0.00022703265
0.22677092	0.02238806	0.00045091932	0.00022703265
0.22696786	0.025290215	0.0005099781	0.00022703265
0.22716479	0.027743271	0.0005596719	0.00022704482
0.22736172	0.024675868	0.00049957266	0.00022703265
0.22755866	0.030165289	0.00060876034	0.00022703265
0.22775559	0.028416215	0.00057571114	0.00022703265
0.22795253	0.029021559	0.00058547227	0.00022703838
0.22814947	0.037375417	0.00075662183	0.00022703265
0.22834641	0.033167496	0.00067050353	0.00022703265
0.22854334	0.03115912	0.00063030765	0.0002270205
0.22874027	0.030685162	0.00062397221	0.00022703265
0.22893721	0.021873711	0.00043945032	0.00022703265
0.22913414	0.020382695	0.00041101026	0.0002270205
0.22933108	0.032807309	0.00066348497	0.0002270205
0.22952801	0.024176741	0.00048869598	0.0002270205
0.22972494	0.027905039	0.00056470284	0.0002270205
0.22992188	0.021973467	0.00044294348	0.00022703838
0.23011883	0.024936602	0.00050781021	0.0002270205
0.23031576	0.026837325	0.00054070097	0.0002270205
0.23051269	0.028714107	0.00058099907	0.0002270205
0.23070963	0.030833334	0.00062408752	0.0002270205
0.23090656	0.026533997	0.00053494947	0.00022700834
0.23110349	0.028942954	0.00058795954	0.00022700834
0.23130043	0.028785983	0.00058343128	0.0002270205
0.23149736	0.034525789	0.00069964741	0.0002270205
0.2316943	0.027151212	0.00055021595	0.0002270205
0.23189123	0.026151931	0.00052747037	0.00022701408
0.23208818	0.026404023	0.00053539191	0.00022700834
0.23228511	0.023313904	0.00047030035	0.00022700834
0.23248205	0.026744671	0.00054214266	0.00022700834
0.23267898	0.030163385	0.0006123677	0.00022700834
0.23287591	0.018703243	0.00037692935	0.00022700834
0.23307285	0.020075282	0.00040598097	0.00022700834
0.23326978	0.028356964	0.00057466922	0.00022700834
0.23346671	0.034641068	0.00070253405	0.00022700834
0.23366365	0.036164843	0.00073684391	0.00022700834
0.23386058	0.027963271	0.00056660001	0.00022701408
0.23405753	0.026424443	0.00053137442	0.00022699618
0.23425446	0.03323517	0.00067694875	0.00022700834
0.2344514	0.026006712	0.00052773702	0.00022699618
0.23464833	0.025491016	0.00051620608	0.00022699618
0.23484527	0.031772576	0.00064503233	0.00022700834
0.2350422	0.029264214	0.00059357088	0.00022700834
0.23523913	0.026039479	0.00052817393	0.00022699618
0.23543607	0.031640299	0.00064044457	0.00022699618
0.235633	0.025919732	0.00052481284	0.00022699618
0.23582993	0.026392963	0.00053478044	0.00022700192
0.23602688	0.029473685	0.00059983175	0.00022698403
0.23622382	0.027511463	0.00055662671	0.00022699618
0.23642075	0.028797997	0.00058342278	0.00022699618
0.23661768	0.038558256	0.00078298128	0.00022698403
0.23681462	0.03577441	0.00072892645	0.00022698403
0.23701155	0.023819473	0.00048197756	0.00022699618
0.23720849	0.026733501	0.00054139912	0.00022698403
0.23740542	0.02854744	0.00057957653	0.00022699618
0.23760235	0.029350106	0.00059606263	0.00022698403
0.23779929	0.032339353	0.00065789797	0.00022698977
0.23799624	0.025876461	0.00052419322	0.00022698403
0.23819317	0.030685162	0.00062409131	0.00022698403
0.2383901	0.02854744	0.00057983189	0.00022698403
0.23858704	0.022622539	0.00045770151	0.00022698403
0.23878397	0.028080469	0.00057016627	0.00022698403
0.2389809	0.022231543	0.00045060716	0.00022697187
0.23917784	0.034468263	0.00070197543	0.00022697187
0.23937477	0.02906487	0.00059104676	0.00022698403
0.23957171	0.019681742	0.0003979824	0.00022697187
0.23976864	0.030442035	0.00061668776	0.00022697762
0.23996559	0.024842106	0.00050448219	0.00022697187
0.24016252	0.025803722	0.00052573526	0.00022697187
0.24035946	0.027268853	0.00055788405	0.00022697187
0.24055639	0.026627218	0.00054247427	0.00022697187
0.24075332	0.017035775	0.00034677691	0.00022697187
0.24095026	0.027027028	0.00055488205	0.00022697187
0.24114719	0.025531914	0.00052164856	0.00022697187
0.24134412	0.031691648	0.00065057271	0.00022697187
0.24154106	0.02761001	0.00056867016	0.00022697187
0.24173799	0.024169184	0.00049722922	0.00022696547
0.24193494	0.024739584	0.0005106575	0.00022697187
0.24213187	0.0232358	0.00047710983	0.00022695972
0.24232881	0.024923481	0.00051620073	0.00022697187
0.24252574	0.031919546	0.00066225772	0.00022695972
0.24272268	0.040174674	0.00083373638	0.00022695972
0.24291961	0.036107443	0.00075230794	0.00022695972
0.24311654	0.03046127	0.00063036632	0.00022695972
0.24331348	0.023100844	0.00048193918	0.00022695972
0.24351041	0.02601411	0.00054139871	0.00022695972
0.24370734	0.022887323	0.00047491275	0.00022696547
0.24390429	0.024021352	0.00050116057	0.00022695972
0.24410123	0.02057245	0.00042998628	0.00022695972
0.24429816	0.01731794	0.00036005987	0.00022694757
0.24449509	0.023755139	0.00050256192	0.00022694757
0.24469203	0.023963133	0.00050860061	0.00022695972
0.24488896	0.022492971	0.00048085596	0.00022694757
0.2450859	0.025858017	0.00055493665	0.00022694757
0.24528283	0.025556082	0.00054976356	0.00022694757
0.24547976	0.024320457	0.00052350713	0.00022694757
0.2456767	0.025505293	0.00055373576	0.0002269533
0.24587364	0.024050023	0.00051993266	0.00022694757
0.24607058	0.021855269	0.00047565773	0.0002269354
0.24626751	0.022771318	0.00049529626	0.00022694757
0.24646445	0.024618415	0.00054024736	0.00022694757
0.24666138	0.027518427	0.00060410448	0.00022694757
0.24685831	0.025160335	0.00055282167	0.0002269354
0.24705525	0.027819175	0.00061423623	0.0002269354
0.24725218	0.025461808	0.00056190335	0.0002269354
0.24744911	0.02413273	0.00053510774	0.00022694757
0.24764605	0.026986506	0.00059552101	0.00022694115
0.247843	0.023665659	0.00052427803	0.0002269354
0.24803993	0.02198364	0.00049083459	0.0002269354
0.24823686	0.026652999	0.00059706322	0.0002269354
0.2484338	0.020875763	0.00046454137	0.00022692325
0.24863073	0.025720164	0.00057574164	0.0002269354
0.24882767	0.035493828	0.00079492532	0.00022692325
0.2490246	0.050698396	0.0011436591	0.00022692325
0.24922153	0.029258098	0.00066121842	0.00022692325
0.24941847	0.031655423	0.00071439199	0.00022692325
0.2496154	0.023194518	0.00052603486	0.000226929
0.24981235	0.02903907	0.00066066883	0.00022692965
0.25000927	0.02454308	0.00055396598	0.00022692325
0.2502062	0.033599999	0.00076938944	0.0002269354
0.25040314	0.030190678	0.00068801612	0.0002269111
0.25060007	0.023255814	0.00053405931	0.0002269226
0.25079703	0.022435898	0.0005121787	0.0002269111
0.25099397	0.025792584	0.00059126387	0.0002269111
0.2511909	0.022788931	0.00052431715	0.0002269111
0.25138783	0.023155628	0.00053002208	0.0002269111
0.25158477	0.01852861	0.00042510513	0.0002269111
0.2517817	0.021834061	0.00050254643	0.0002269111
0.25197864	0.023561643	0.00054402585	0.0002269111
0.25217557	0.026592799	0.00061899726	0.0002269111
0.2523725	0.023051592	0.0005327891	0.0002269111
0.25256944	0.02167871	0.00050397759	0.0002269111
0.25276637	0.026651859	0.00062023301	0.0002269111
0.2529633	0.022892239	0.00053280918	0.0002268868
0.25316024	0.015202703	0.0003541004	0.0002269111
0.25335717	0.026151223	0.0006159984	0.0002269111
0.25355411	0.03222027	0.00077243603	0.0002269111
0.25375104	0.036101084	0.0008773937	0.0002269111
0.25394797	0.019323671	0.00046751602	0.0002268868
0.25414491	0.024570024	0.00060031243	0.0002269111
0.25434184	0.019607844	0.00048474528	0.0002269111
0.25453877	0.024739584	0.00062308495	0.0002269226
0.25473574	0.025520483	0.00065096468	0.0002268868
0.25493267	0.019754769	0.00050555053	0.0002269111
0.25512961	0.027816411	0.00072316639	0.0002269111
0.25532654	0.022711143	0.000595121	0.0002269111
0.25552347	0.035688274	0.00095239352	0.0002268868
0.25572041	0.031060606	0.00084164873	0.0002269111
0.25591734	0.022690438	0.00063118123	0.0002269111
0.25611427	0.023215821	0.00066641526	0.0002268868
0.25631121	0.029223744	0.00086523278	0.0002268868
0.25650814	0.021677662	0.00064860989	0.0002268868
0.25670508	0.034849953	0.0010671086	0.0002268868
0.25690201	0.028541226	0.00090718863	0.0002268868
0.25709894	0.030303031	0.00099392817	0.0002268868
0.25729588	0.017709563	0.00058259268	0.0002268868
0.25749281	0.011990407	0.00039412384	0.0002268868
0.25768974	0.026415095	0.00090828637	0.0002268868
0.25788668	0.02457956	0.00085852179	0.0002268868
0.25808361	0.014686248	0.00050259748	0.0002268868
0.25828055	0.03009576	0.0010788203	0.0002268868
0.25847748	0.022889843	0.00083888177	0.00022689829
0.25867444	0.018922852	0.00069413433	0.00022686248
0.25887138	0.035168197	0.0013433244	0.00022686248
0.25906831	0.021604938	0.00081397133	0.00022686248
0.25926524	0.023771791	0.00091497664	0.0002268868
0.25946218	0.015050167	0.00058073486	0.00022686248
0.25965911	0.023769099	0.00092357182	0.0002268868
0.25985605	0.019064125	0.00075045525	0.0002268868
0.26005298	0.024305556	0.0009713592	0.00022686248
0.26024991	0.01923077	0.00076733012	0.00022686248
0.26044685	0.019642858	0.00078490656	0.0002268868
0.26064378	0.017825311	0.0007066176	0.00022686248
0.26084071	0.023381295	0.00094741239	0.00022686248
0.26103765	0.018416205	0.00075045001	0.00022686248
0.26123458	0.031481482	0.0013106711	0.00022686248
0.26143152	0.03018868	0.0012708723	0.0002268868
0.26162845	0.038817007	0.0016184751	0.00022686248
0.26182538	0.032504778	0.0013751338	0.00022686248
0.26202232	0.031311154	0.0013312205	0.00022686248
0.26221925	0.023809524	0.0010086887	0.00022686248
0.26241618	0.019120459	0.00079393387	0.00022684968
0.26261315	0.023809524	0.0010086887	0.00022683818
0.26281008	0.020325202	0.0008701926	0.00022686248
0.26300701	0.032854211	0.0014187207	0.00022686248
0.26320395	0.022132797	0.00094754342	0.00022683818
0.26340088	0.029598309	0.0013055819	0.00022686248
0.26359782	0.020920502	0.00090872857	0.00022683818
0.26379475	0.021367522	0.00093803054	0.00022686248
0.26399168	0.010683761	0.00044219184	0.00022683818
0.26418862	0.010869565	0.0004537857	0.00022683818
0.26438555	0.017897092	0.00079271867	0.00022683818
0.26458248	0.034324944	0.0015881261	0.00022683818
0.26477942	0.022421524	0.00099707185	0.00022683818
0.26497635	0.025641026	0.0011817269	0.00022686248
0.26517329	0.011655011	0.0005038901	0.00022683818
0.26537022	0.017114915	0.0007844608	0.00022683818
0.26556715	0.014423077	0.00064631354	0.00022683818
0.26576409	0.024752475	0.0011697346	0.00022683818
0.26596102	0.025252525	0.0012053899	0.00022683818
0.26615795	0.020725388	0.00098804408	0.00022683818
0.26635489	0.0076726344	0.00031722439	0.00022684968
0.26655185	0.01591512	0.00074924761	0.00022681388
0.26674879	0.02739726	0.0013623155	0.00022683818
0.26694572	0.05135135	0.0026019453	0.00022683818
0.26714265	0.030136986	0.0015060966	0.00022681388
0.26733959	0.016949153	0.00082351215	0.00022681388
0.26753652	0.031428572	0.0016040413	0.00022681388
0.26773345	0.012084592	0.00057611032	0.00022683818
0.26793039	0.017910447	0.00089462817	0.00022683818
0.26812732	0.01183432	0.00050964567	0.00022683818
0.26832426	0.0125	0.00060610141	0.00022683818
0.26852119	0.0063492064	0.00025336092	0.00022683818
0.26871812	0.019292604	0.001000275	0.00022683818
0.26891506	0.028938906	0.0015496192	0.00022681388
0.26911199	0.013468013	0.00067793543	0.00022683818
0.26930892	0.020134227	0.001066513	0.00022683818
0.26950586	0.024221454	0.0013213885	0.00022683818
0.26970279	0.020618556	0.0011052707	0.00022681388
0.26989973	0.010869565	0.00053518038	0.00022681388
0.27009666	0.0074906368	0.0003247603	0.00022681388
0.27029359	0.0038167939	0	0.00022684968
0.27049056	0	0	0.00022681388
0.27068749	0	0	0.00022681388
0.27088442	0	0	0.00022681388
0.27108136	0	0	0.00022681388
0.27127829	0	0	0.00022681388
0.27147523	0.0070921984	0	0.00022681388
0.27167216	0	0	0.00022681388
0.27186909	0.020408163	0	0.00022681388
0.27206603	0.041666668	0	0.00022681388
0.27226296	0	0	0.00022681388
