#   DataFileName=PAL30_130C_WAXS_08172017.tif
#   DataFileType=.tif
#   
#   DataFilePath=E:DATA:PAL30_08262017:
#   
#   Processed on=Wed, Jan 16, 2019,2:42:51 AM
#   Units=Arbitrary
#   SampleThickness=1
#   SampleTransmission=1
#   CorrectionFactor=1
#   SampleMeasurementTime=1
#   EmptyMeasurementTime=1
#   BackgroundMeasTime=1
#   SampleI0=1
#   EmptyI0=1
#   Nika_SampleToDetectorDistacne=1552.1
#   Nika_Wavelength=1.54
#   Nika_XrayEnergy=8.0509
#   Nika_PixelSizeX=0.075
#   Nika_PixelSizeY=0.075
#   Nika_HorizontalTilt=0
#   Nika_VerticalTilt=0
#   Nika_BeamCenterX=1540.3
#   Nika_BeamCenterY=830.17
#   Nika_BeamSizeX=0
#   Nika_BeamCenterY=830.17
#   CalibrationFormula=1*((Sa2D))
#   CurrentMaskFileName=PAL30_30C_WAXS_mask.hdf
#   QvectorMaxNumPnts=1
#   QvectorNumberPoints=1383
#   CircularAverage=1
#   PolarizationCorrection=None
#   UncertainityCalculationMethod=OldNikaMethod

0.0060065244	4	2.7386129	0.00022756745
0.00620346	3.96	0.78451681	0.00022756765
0.0064003952	3.1754386	0.4184075	0.00022756765
0.0065973303	3.4749999	0.38731876	0.00022756765
0.0067942655	5.4285712	0.54405677	0.00022756765
0.0069912006	7.0841122	0.66776389	0.00022756745
0.0071881362	8.6229506	0.75875741	0.00022756727
0.0073850714	9.2061071	0.78689551	0.00022756727
0.0075820065	8.6758623	0.70651752	0.00022756727
0.0077789417	8.4013605	0.679896	0.00022756745
0.0079758773	7.2594938	0.5685119	0.00022756746
0.0081728119	6.9447851	0.5342527	0.00022756707
0.0083697475	6.0505619	0.44681078	0.00022756671
0.0085666822	5.0673575	0.3593367	0.00022756783
0.0087636178	4.6153846	0.32597461	0.00022756783
0.0089605534	3.7630332	0.25543597	0.00022756746
0.0091574881	3.4585152	0.22564508	0.00022756707
0.0093544237	3.016	0.18840373	0.00022756671
0.0095513584	2.851711	0.17392607	0.00022756707
0.009748294	2.6911764	0.16156541	0.00022756707
0.0099452296	2.3574007	0.14010702	0.00022756595
0.010142164	2.2625899	0.13417765	0.00022756707
0.0103391	2.0707071	0.11899295	0.00022756671
0.010536035	1.8542373	0.10684159	0.00022756707
0.01073297	1.625	0.092365839	0.00022756783
0.010929906	1.5016078	0.084243104	0.00022756746
0.01112684	1.3929713	0.078066759	0.00022756783
0.011323776	1.4006025	0.076151244	0.00022756746
0.011520711	1.2835366	0.070167132	0.00022756707
0.011717646	1.1745563	0.063282728	0.00022756707
0.011914582	1.1052631	0.059172977	0.00022756746
0.012111517	1.1014493	0.058758136	0.00022756783
0.012308452	0.96703297	0.050239339	0.00022756671
0.012505387	0.98870057	0.052136842	0.00022756783
0.012702323	0.87830687	0.044881195	0.00022756783
0.012899258	0.85790884	0.044072486	0.00022756671
0.013096193	0.7931937	0.040237777	0.00022756707
0.013293128	0.80051148	0.040183287	0.00022756671
0.013490063	0.71391755	0.036007233	0.00022756707
0.013686999	0.72058821	0.035418622	0.00022756707
0.013883934	0.59854013	0.029376538	0.00022756671
0.014080869	0.63157892	0.030755892	0.00022756707
0.014277805	0.58588237	0.028210774	0.00022756671
0.014474739	0.55791962	0.026977584	0.0002275663
0.014671675	0.4853273	0.022860095	0.00022756707
0.014868611	0.48409089	0.022901589	0.00022756671
0.015065545	0.47472528	0.022106417	0.0002275663
0.015262481	0.40128756	0.01845778	0.00022756671
0.015459416	0.48131868	0.022407576	0.00022756595
0.01565635	0.43923241	0.020132959	0.00022756707
0.015853286	0.43099788	0.019716958	0.00022756554
0.016050221	0.37113401	0.016774176	0.00022756707
0.016247157	0.39878541	0.01786178	0.00022756707
0.016444093	0.382	0.01695686	0.00022756483
0.016641026	0.37148595	0.016571879	0.00022756707
0.016837962	0.30861723	0.013727042	0.00022756707
0.017034898	0.33268481	0.014584801	0.00022756554
0.017231833	0.30783939	0.01336285	0.00022756554
0.017428769	0.29791272	0.012875546	0.00022756483
0.017625703	0.29345796	0.012604793	0.00022756554
0.017822638	0.2793296	0.011984496	0.00022756554
0.018019574	0.27022058	0.011530889	0.00022756554
0.018216509	0.31021899	0.013183442	0.00022756554
0.018413445	0.20572451	0.0086485483	0.00022756483
0.018610379	0.2508834	0.010491216	0.00022756554
0.018807314	0.21465969	0.0089185368	0.00022756554
0.01900425	0.25303292	0.010476054	0.00022756554
0.019201186	0.19930071	0.0082728136	0.00022756554
0.019398121	0.21105528	0.0085861487	0.00022756483
0.019595055	0.24237289	0.0099012125	0.00022756554
0.019791991	0.21322314	0.0086154994	0.00022756554
0.019988926	0.19504133	0.0078840815	0.00022756554
0.020185862	0.20588236	0.0082711969	0.00022756554
0.020382797	0.19267516	0.0076475227	0.00022756483
0.020579731	0.17475729	0.0069967536	0.00022756403
0.020776667	0.17554858	0.0069182385	0.00022756403
0.020973602	0.19092332	0.0075113485	0.00022756554
0.021170538	0.2109375	0.0082878191	0.00022756403
0.021367474	0.1749623	0.0067626024	0.0002275633
0.021564407	0.15944272	0.0062367879	0.00022756403
0.021761343	0.16143498	0.0062106629	0.00022756403
0.021958278	0.14479639	0.0055878386	0.00022756403
0.022155214	0.16005874	0.0061014416	0.00022756403
0.02235215	0.15697674	0.0059524691	0.0002275633
0.022549083	0.15124816	0.0057658311	0.00022756403
0.022746019	0.14326242	0.0053640911	0.00022756403
0.022942955	0.16212338	0.0061102798	0.00022756403
0.02313989	0.15841584	0.005928217	0.00022756403
0.023336826	0.12691772	0.0047083572	0.0002275633
0.02353376	0.14627285	0.0054503018	0.00022756403
0.023730695	0.13432837	0.0049131187	0.00022756403
0.023927631	0.12689655	0.0046836445	0.0002275625
0.024124566	0.1380697	0.0050257151	0.00022756403
0.024321502	0.1152815	0.0041932119	0.00022756179
0.024518436	0.11946309	0.0043483768	0.0002275625
0.024715371	0.11725955	0.0042296532	0.0002275625
0.024912307	0.13342141	0.0048241029	0.0002275625
0.025109243	0.12531969	0.0044557182	0.0002275625
0.025306178	0.13324709	0.0047659674	0.00022756179
0.025503112	0.11111111	0.0039451406	0.0002275625
0.025700048	0.10165184	0.0036002169	0.0002275625
0.025896983	0.11832061	0.0041953661	0.0002275625
0.026093919	0.11330049	0.0039535272	0.00022756097
0.026290854	0.11042184	0.0038689438	0.00022756179
0.026487788	0.089024387	0.0030870319	0.0002275625
0.026684724	0.11491442	0.0039952435	0.00022756097
0.026881659	0.10840438	0.003759027	0.0002275625
0.027078595	0.07995227	0.0027422332	0.00022756097
0.027275531	0.085439228	0.0029423092	0.00022756179
0.027472464	0.10011642	0.0033951981	0.00022756097
0.0276694	0.098108746	0.0033516914	0.00022756097
0.027866336	0.11136891	0.0037718948	0.00022756097
0.028063271	0.11046512	0.0037470318	0.00022756097
0.028260207	0.1002331	0.0034025358	0.00022756026
0.028457141	0.099887766	0.0033264051	0.00022756097
0.028654076	0.10442679	0.0034997875	0.00022756097
0.028851012	0.095078297	0.0031615735	0.00022756097
0.029047947	0.090705484	0.0030163752	0.00022756097
0.029244883	0.096737906	0.0032256159	0.00022756026
0.029441817	0.098039217	0.0032174932	0.00022756097
0.029638752	0.089010991	0.0029335746	0.00022755946
0.029835688	0.090614885	0.0029591627	0.00022756097
0.030032624	0.10537634	0.0034381535	0.00022755946
0.030229559	0.0995671	0.0032574839	0.00022755875
0.030426493	0.084042557	0.0027221136	0.00022755946
0.030623429	0.06709265	0.0021726408	0.00022755946
0.030820364	0.074303403	0.0023710951	0.00022755946
0.0310173	0.075709783	0.0024387548	0.00022755946
0.031214235	0.085062243	0.0027230964	0.00022755946
0.031411171	0.087268993	0.0027788717	0.00022755875
0.031608105	0.078593589	0.002508488	0.00022755571
0.031805038	0.088978767	0.0028139262	0.00022756017
0.032001976	0.092012137	0.0029083225	0.00022755875
0.03219891	0.074371859	0.0023412036	0.00022756017
0.032395847	0.081918083	0.0025734699	0.00022755875
0.032592781	0.075471699	0.002362546	0.00022755875
0.032789715	0.060665362	0.001881708	0.00022756017
0.032986652	0.075862072	0.0023644024	0.00022755571
0.033183586	0.07692308	0.0023843171	0.00022755713
0.033380523	0.090558767	0.0027962087	0.00022755875
0.033577457	0.081888244	0.0025250805	0.00022755571
0.033774391	0.073403239	0.0022518919	0.00022755713
0.033971328	0.077290073	0.0023734816	0.00022755571
0.034168262	0.072847679	0.0022263669	0.00022756017
0.0343652	0.064090483	0.0019535664	0.00022755571
0.034562133	0.075208917	0.0022775321	0.00022755571
0.034759067	0.069573283	0.0021039154	0.00022756017
0.034956004	0.080555558	0.0024369245	0.00022755571
0.035152938	0.056621004	0.0016975522	0.00022755713
0.035349876	0.079379559	0.0023837404	0.00022755571
0.035546809	0.074410163	0.0022281446	0.00022755571
0.035743743	0.088768117	0.0026574663	0.00022755713
0.035940681	0.073542602	0.0021886195	0.00022755571
0.036137614	0.067495562	0.0019983444	0.00022755713
0.036334552	0.074600354	0.0022092883	0.00022755266
0.036531486	0.07495591	0.0022121612	0.00022755266
0.036728419	0.071428575	0.0021085916	0.00022755713
0.036925357	0.07478261	0.002193314	0.00022755571
0.037122291	0.0625543	0.001831771	0.00022755713
0.037319228	0.068457536	0.0020029491	0.00022755571
0.037516162	0.082273111	0.002384451	0.00022755266
0.037713096	0.071979433	0.0020935556	0.00022755713
0.037910033	0.0681431	0.0019755934	0.00022755266
0.038106967	0.068702288	0.0019889965	0.00022755409
0.038303904	0.070886075	0.0020460226	0.00022755266
0.038500838	0.068219632	0.0019549979	0.00022755266
0.038697772	0.06198347	0.0017700739	0.00022755409
0.038894709	0.062086094	0.0017747928	0.00022755266
0.039091643	0.079404466	0.002271181	0.00022755409
0.03928858	0.074590161	0.0021235773	0.00022755266
0.039485514	0.070674248	0.0020030055	0.00022755266
0.039682448	0.069049552	0.0019563923	0.00022755409
0.039879385	0.057831325	0.0016266371	0.00022755266
0.040076319	0.073600002	0.0020707115	0.00022755409
0.040273257	0.065008029	0.0018301372	0.00022754962
0.04047019	0.060461417	0.0016938645	0.00022754962
0.040667124	0.069102459	0.0019362819	0.00022755409
0.040864062	0.059421424	0.0016509171	0.00022755266
0.041060995	0.055209953	0.0015289675	0.00022755409
0.041257933	0.077223092	0.0021457984	0.00022754962
0.041454867	0.073151752	0.0020298816	0.00022755266
0.0416518	0.063813232	0.0017696948	0.00022755409
0.041848738	0.073282443	0.0020138079	0.00022754962
0.042045671	0.085171103	0.0023383379	0.00022754801
0.042242609	0.058555134	0.0016040058	0.00022754657
0.042439543	0.058466211	0.0016006263	0.00022754353
0.042636476	0.058602553	0.0015965729	0.00022754801
0.042833414	0.078313254	0.0021384491	0.00022754657
0.043030348	0.061239731	0.0016629497	0.00022754801
0.043227285	0.062038403	0.0016760483	0.00022754353
0.043424219	0.055268977	0.0014897849	0.00022754353
0.043621153	0.061764706	0.0016652051	0.00022754801
0.04381809	0.069648094	0.001876354	0.00022754353
0.044015024	0.045354791	0.001216248	0.00022754495
0.044211961	0.060144927	0.0016091377	0.00022754353
0.044408895	0.065467626	0.0017467189	0.00022754353
0.044605829	0.069683909	0.0018583409	0.00022754495
0.044802766	0.055954088	0.0014892995	0.00022754353
0.0449997	0.049964312	0.0013257798	0.00022754495
0.045196638	0.060070671	0.0015876191	0.00022754353
0.045393571	0.051773049	0.0013692658	0.00022754353
0.045590505	0.067974769	0.0017899921	0.00022754495
0.045787442	0.06171108	0.0016248145	0.00022754048
0.045984376	0.061111111	0.0016011714	0.00022754191
0.046181314	0.050659265	0.0013242993	0.00022754353
0.046378247	0.056629833	0.0014784936	0.00022754048
0.046575181	0.048342541	0.0012609586	0.00022754191
0.046772119	0.063742287	0.00165958	0.00022754353
0.046969052	0.059904698	0.0015533721	0.00022754495
0.04716599	0.05248807	0.0013614653	0.00022754048
0.047362924	0.057277627	0.0014781652	0.00022754048
0.047559857	0.060991958	0.0015693135	0.00022754495
0.047756795	0.066487573	0.0017136452	0.00022754048
0.047953729	0.056338027	0.0014497604	0.00022754495
0.048150666	0.064366288	0.0016480946	0.00022754048
0.0483476	0.06502986	0.001665214	0.00022754048
0.048544534	0.058284216	0.0014811463	0.00022754191
0.048741471	0.062623598	0.0015988162	0.00022753744
0.048938405	0.053420197	0.001353752	0.00022754191
0.049135342	0.043905634	0.0011141184	0.00022754048
0.049332276	0.049902786	0.0012605935	0.00022753744
0.04952921	0.08085382	0.0020459872	0.00022753887
0.049726147	0.057382334	0.0014461521	0.00022753744
0.049923081	0.0569981	0.0014248968	0.00022754191
0.050120018	0.059462916	0.0014942077	0.00022753744
0.050316952	0.059500959	0.001495467	0.00022753744
0.050513886	0.064126983	0.0016061086	0.00022753887
0.050710823	0.05516804	0.0013796204	0.00022753744
0.050907757	0.061452515	0.0015206352	0.00022753887
0.051104695	0.056839474	0.0014110856	0.00022753744
0.051301628	0.048689138	0.0012068065	0.00022753744
0.051498562	0.056179777	0.0013929177	0.00022753887
0.0516955	0.06122449	0.0015131164	0.00022753744
0.051892433	0.05630355	0.0013828842	0.00022753887
0.052089371	0.056790125	0.0014011888	0.0002275344
0.052286305	0.069216758	0.0016965898	0.00022753744
0.052483238	0.054711245	0.0013396564	0.00022753583
0.052680176	0.05957447	0.0014577768	0.0002275344
0.052877109	0.050455928	0.001233609	0.00022753887
0.053074047	0.050632913	0.0012326883	0.0002275344
0.053270981	0.053731345	0.001303167	0.00022753744
0.053467914	0.058472555	0.0014184102	0.00022753887
0.053664852	0.051892553	0.0012721417	0.0002275344
0.053861786	0.044582043	0.0010980864	0.00022753583
0.054058723	0.051058531	0.0012647699	0.0002275344
0.054255657	0.069264069	0.0017130899	0.0002275344
0.054452591	0.055659786	0.0013823978	0.00022753583
0.054649528	0.0555209	0.0013766964	0.0002275344
0.054846462	0.040752351	0.0010091836	0.00022753583
0.055043399	0.054820415	0.0013660486	0.00022753136
0.055240333	0.053063802	0.0013238712	0.0002275344
0.055437267	0.04851922	0.001208108	0.00022753583
0.055634204	0.04255319	0.0010553447	0.00022753136
0.055831138	0.051931601	0.0012963754	0.00022753279
0.056028076	0.057898048	0.0014425737	0.00022753136
0.056225009	0.051833123	0.0012915153	0.00022753136
0.056421943	0.049138483	0.0012302592	0.00022753279
0.05661888	0.045883093	0.0011408117	0.00022753136
0.056815814	0.045254558	0.0011252421	0.00022753279
0.057012752	0.05443038	0.0013597405	0.00022753136
0.057209685	0.06313131	0.001576547	0.00022752832
0.057406619	0.054292928	0.0013545922	0.00022753279
0.057603557	0.049905244	0.0012441092	0.00022753136
0.05780049	0.063924052	0.0015973779	0.00022753279
0.057997428	0.038944725	0.0009666679	0.00022752832
0.058194362	0.05618687	0.0014017256	0.00022752832
0.058391295	0.061907768	0.0015450879	0.00022752974
0.058588233	0.040726818	0.0010084792	0.00022752832
0.058785167	0.053164557	0.0013272621	0.00022752974
0.058982104	0.059710875	0.0014860495	0.00022752832
0.059179038	0.057788946	0.0014374623	0.00022752832
0.059375972	0.052234109	0.0013001745	0.00022752974
0.059572909	0.074561402	0.0018549848	0.00022752528
0.059769843	0.06427221	0.0016025177	0.00022752974
0.05996678	0.042131349	0.001038084	0.00022752528
0.060163714	0.069943286	0.0017440527	0.00022752528
0.060360648	0.052369077	0.001297018	0.00022752974
0.060557585	0.055729493	0.0013841088	0.00022752528
0.060754519	0.067828253	0.0016803115	0.0002275267
0.060951456	0.056179777	0.001392743	0.00022752528
0.06114839	0.046048537	0.0011385208	0.00022752528
0.061345324	0.044209216	0.0010919544	0.0002275267
0.061542261	0.053416148	0.0013213609	0.00022752528
0.061739195	0.043532338	0.0010750213	0.0002275267
0.061936133	0.032858029	0.00080797856	0.00022752528
0.062133066	0.040222771	0.00099053001	0.00022752528
0.06233	0.046153847	0.0011341376	0.00022752528
0.062526934	0.048825711	0.0012027741	0.0002275251
0.062723875	0.051488835	0.0012709392	0.00022751919
0.062920809	0.050554872	0.0012447801	0.00022752528
0.063117743	0.047117174	0.0011637436	0.00022751919
0.063314676	0.065483473	0.0016097396	0.00022751919
0.06351161	0.047037262	0.0011535672	0.00022752814
0.063708551	0.046597179	0.0011445279	0.00022751919
0.063905485	0.039555006	0.0009740098	0.00022751919
0.064102419	0.043902438	0.0010756024	0.00022751919
0.064299352	0.046540111	0.0011428277	0.00022752528
0.064496286	0.052471019	0.0012860864	0.00022752205
0.064693227	0.036452007	0.00088946399	0.00022751919
0.064890161	0.050909091	0.0012442227	0.00022751919
0.065087095	0.050091632	0.0012288211	0.00022752528
0.065284029	0.043372024	0.0010625815	0.00022752528
0.065480962	0.038135592	0.00092844467	0.00022752205
0.065677904	0.039109506	0.00095037289	0.00022752528
0.065874837	0.05505142	0.0013441902	0.00022751919
0.066071771	0.050571945	0.0012315264	0.00022751919
0.066268705	0.048367593	0.0011805035	0.00022751919
0.066465639	0.05719446	0.0013943408	0.00022752205
0.06666258	0.047904193	0.0011620974	0.00022751919
0.066859514	0.055723805	0.001362229	0.00022751919
0.067056447	0.055885851	0.0013540926	0.00022751919
0.067253381	0.047818292	0.0011608148	0.00022751919
0.067450315	0.052002393	0.0012630773	0.00022751596
0.067647256	0.041317366	0.0010016449	0.00022751919
0.06784419	0.045563549	0.0011066501	0.00022751919
0.068041123	0.053846154	0.0013012368	0.00022751311
0.068238057	0.04386485	0.0010600615	0.00022751311
0.068434991	0.059417706	0.0014393337	0.00022752205
0.068631932	0.064420804	0.0015559357	0.00022751311
0.068828866	0.046650719	0.0011319933	0.00022751311
0.0690258	0.047925189	0.0011496078	0.00022751311
0.069222733	0.047815822	0.0011531196	0.00022751311
0.069419667	0.057919621	0.0013990729	0.00022751596
0.069616608	0.05334115	0.0012835985	0.00022751311
0.069813542	0.035231944	0.00084541488	0.00022751311
0.070010476	0.043580685	0.0010486065	0.00022751311
0.07020741	0.03957472	0.00095359102	0.00022751311
0.070404343	0.041594453	0.00099150429	0.00022752205
0.070601285	0.041447751	0.00099304458	0.00022751311
0.070798218	0.045903545	0.001098555	0.00022751311
0.070995152	0.052785926	0.0012685993	0.00022751311
0.071192086	0.044366609	0.0010638838	0.00022751311
0.071389019	0.046029918	0.001095077	0.00022751596
0.071585961	0.048723899	0.0011651316	0.00022750701
0.071782894	0.050289016	0.0012011587	0.00022751311
0.071979828	0.052234475	0.001250177	0.00022751311
0.072176762	0.046109509	0.0010987911	0.00022751311
0.072373696	0.044126075	0.0010479488	0.00022751596
0.072570637	0.052753624	0.0012622913	0.00022751311
0.072767571	0.053439453	0.0012662888	0.00022750701
0.072964504	0.039351851	0.0009397376	0.00022750701
0.073161438	0.051107325	0.0012096199	0.00022751311
0.073358372	0.044622425	0.0010589622	0.00022750988
0.073555313	0.043778803	0.0010428071	0.00022750701
0.073752247	0.044092707	0.0010406794	0.00022751311
0.073949181	0.040525112	0.00096045289	0.00022750701
0.074146114	0.041312959	0.00097558479	0.00022751311
0.074343048	0.046776954	0.0011093708	0.00022750988
0.074539989	0.044860873	0.0010613319	0.00022750701
0.074736923	0.051984347	0.0012207577	0.00022750701
0.074933857	0.038133182	0.00090236479	0.00022750701
0.07513079	0.045608107	0.0010741727	0.00022750701
0.075327724	0.042792793	0.0010075924	0.0002275038
0.075524665	0.056338027	0.001329142	0.00022750701
0.075721599	0.046213809	0.0010824413	0.00022750093
0.075918533	0.045608107	0.0010746715	0.00022750701
0.076115467	0.04588696	0.0010776925	0.00022750701
0.0763124	0.039642658	0.00092924701	0.00022750988
0.076509342	0.035595104	0.00083206512	0.00022750701
0.076706275	0.041088283	0.00096118171	0.00022750701
0.076903209	0.040919282	0.00096093747	0.00022750701
0.077100143	0.044077136	0.001027589	0.00022750093
0.077297077	0.043791573	0.0010236053	0.0002275038
0.077494018	0.040600669	0.00094991509	0.00022750093
0.077690952	0.029686641	0.00068856531	0.00022750093
0.077887885	0.041225627	0.00096546853	0.00022750093
0.078084819	0.049019609	0.0011362501	0.00022750093
0.078281753	0.047881123	0.0011159151	0.0002275038
0.078478694	0.039625756	0.00092230004	0.00022750093
0.078675628	0.04915347	0.0011406227	0.00022750093
0.078872561	0.038037486	0.00088551093	0.00022750093
0.079069495	0.038692098	0.0008956581	0.00022750093
0.079266429	0.038188763	0.00088417373	0.0002275038
0.07946337	0.040348966	0.0009339634	0.00022750093
0.079660304	0.046511628	0.0010743244	0.00022750093
0.079857238	0.04696887	0.00108961	0.00022750093
0.080054171	0.047593292	0.0010998048	0.00022750093
0.080251105	0.045776568	0.0010614669	0.0002275038
0.080448046	0.040431269	0.00093136687	0.00022749485
0.08064498	0.039614562	0.00091009546	0.00022750093
0.080841914	0.051490515	0.0011914121	0.00022750093
0.081038848	0.038090128	0.00087536365	0.00022749485
0.081235781	0.046536796	0.0010747543	0.00022749772
0.081432723	0.042155817	0.00096709625	0.00022749485
0.081629656	0.053866666	0.0012369275	0.00022749485
0.08182659	0.037493303	0.00086119899	0.00022749485
0.082023524	0.038850453	0.00088965642	0.00022749485
0.082220457	0.043292359	0.00099431654	0.00022749772
0.082417399	0.044799998	0.0010281189	0.00022749485
0.082614332	0.036721662	0.00084031309	0.00022749485
0.082811266	0.030270845	0.0006903247	0.00022749485
0.0830082	0.043684211	0.00099521934	0.00022749485
0.083205134	0.03911205	0.00089316152	0.00022749163
0.083402075	0.042789225	0.0009762753	0.00022749485
0.083599009	0.045769025	0.0010491253	0.00022749485
0.083795942	0.039349422	0.00089471455	0.00022748877
0.083992876	0.046621267	0.0010603585	0.00022749485
0.08418981	0.0513089	0.0011673385	0.00022749772
0.084386751	0.043956045	0.00099934253	0.00022748877
0.084583685	0.047569264	0.0010809648	0.00022749485
0.084780619	0.043727227	0.00099112093	0.00022749485
0.084977552	0.03862213	0.00087545515	0.00022748877
0.085174486	0.045501553	0.0010282245	0.00022749163
0.085371427	0.040561624	0.00091849081	0.00022748877
0.085568361	0.050437469	0.0011380804	0.00022748877
0.085765295	0.044753086	0.0010091601	0.00022748877
0.085962228	0.042231493	0.00095813494	0.00022748877
0.086159162	0.046858907	0.0010554153	0.00022748555
0.086356103	0.041794088	0.00093660568	0.00022748877
0.086553037	0.04466119	0.0010055145	0.00022748877
0.086749971	0.043676995	0.00097841281	0.00022748877
0.086946905	0.036522634	0.00082154811	0.00022748268
0.087143838	0.046122655	0.001031898	0.00022749163
0.08734078	0.044875063	0.0010066632	0.00022748877
0.087537713	0.043566361	0.00097362895	0.00022748268
0.087734647	0.044511888	0.00099433528	0.00022748877
0.087931581	0.035060976	0.0007841175	0.00022748877
0.088128515	0.043194376	0.00096210645	0.00022748555
0.088325456	0.032225579	0.00071727426	0.00022748268
0.08852239	0.039999999	0.00089356519	0.00022748268
0.088719323	0.040938593	0.00090840238	0.00022748268
0.088916257	0.042585172	0.00094740256	0.00022748268
0.089113191	0.047452547	0.0010540258	0.00022748555
0.089310132	0.042957041	0.0009541866	0.00022748268
0.089507066	0.038844623	0.00086063886	0.00022748268
0.089703999	0.047619049	0.0010538945	0.00022748268
0.089900933	0.047499999	0.0010553704	0.00022748268
0.090097867	0.048696507	0.0010731464	0.00022747947
0.090294808	0.051345963	0.0011401401	0.00022748268
0.090491742	0.05130735	0.001133329	0.00022748268
0.090688676	0.047948591	0.0010601201	0.00022748268
0.090885609	0.03899309	0.00086031243	0.0002274766
0.091082543	0.041851304	0.00092197902	0.00022748268
0.091279477	0.038366944	0.00084466924	0.00022748555
0.091476418	0.033448108	0.00073637202	0.0002274766
0.091673352	0.044433594	0.00097608531	0.00022748268
0.091870286	0.036818851	0.00081023318	0.0002274766
0.092067219	0.038687561	0.00085008104	0.0002274766
0.092264153	0.041382667	0.00090742501	0.00022747947
0.092461094	0.043902438	0.00096375326	0.0002274766
0.092658028	0.040586796	0.00089151575	0.0002274766
0.092854962	0.035800677	0.0007814276	0.0002274766
0.093051895	0.048815854	0.0010671797	0.0002274766
0.093248829	0.039825156	0.00087145844	0.00022747337
0.09344577	0.037216045	0.00081221439	0.0002274766
0.093642704	0.038872693	0.00085077452	0.00022747052
0.093839638	0.05593057	0.0012215615	0.0002274766
0.094036572	0.042809043	0.0009329762	0.0002274766
0.094233505	0.04142582	0.00090386468	0.00022747947
0.094430447	0.041666668	0.00090620556	0.00022747052
0.09462738	0.047342993	0.0010347329	0.00022747052
0.094824314	0.044476327	0.0009670619	0.00022747052
0.095021248	0.039731931	0.0008636206	0.00022747052
0.095218182	0.051880058	0.001125857	0.00022747337
0.095415123	0.041089345	0.00089262868	0.00022747052
0.095612057	0.045736063	0.00099243235	0.00022747052
0.09580899	0.041844983	0.00090678578	0.00022747052
0.096005924	0.048803829	0.0010611983	0.00022747052
0.096202858	0.041725937	0.00090315449	0.00022747337
0.096399799	0.035933807	0.00077542639	0.00022747052
0.096596733	0.041862652	0.00090197392	0.00022746444
0.096793666	0.039697543	0.00085754821	0.00022747052
0.0969906	0.0463138	0.0010011705	0.00022746444
0.097187534	0.039585296	0.00085342245	0.00022747337
0.097384475	0.042512991	0.00091835804	0.00022746444
0.097581409	0.045112781	0.00097231823	0.00022747052
0.097778343	0.040483948	0.00086777424	0.00022746444
0.097975276	0.030588236	0.00065763236	0.00022746444
0.09817221	0.048041046	0.0010318354	0.00022746729
0.098369151	0.042904291	0.00092600845	0.00022746444
0.098566085	0.045854561	0.00098118081	0.00022746444
0.098763019	0.047306791	0.0010186771	0.00022746444
0.098959953	0.039777983	0.00085011637	0.00022746444
0.099156886	0.040184759	0.00085851544	0.00022746121
0.099353828	0.039215688	0.00084185874	0.00022746444
0.099550761	0.036245354	0.0007754449	0.00022745834
0.099747695	0.045182113	0.00096459256	0.00022745834
0.099944629	0.033765033	0.00072024885	0.00022745834
0.10014156	0.03816092	0.00081218296	0.00022746121
0.1003385	0.043377943	0.00092601898	0.00022745834
0.10053544	0.033027522	0.00070246606	0.00022746444
0.10073237	0.029275093	0.00062538433	0.00022745834
0.1009293	0.034830432	0.00074050186	0.00022746444
0.10112624	0.042727273	0.00090494734	0.00022746121
0.10132318	0.039522059	0.000841578	0.00022746444
0.10152011	0.03771013	0.00079830241	0.00022745834
0.10171705	0.035665296	0.00075702817	0.00022745834
0.10191398	0.037374657	0.00079202454	0.00022745834
0.10211091	0.037916858	0.00080511376	0.00022746121
0.10230786	0.044565711	0.0009447186	0.00022745834
0.10250479	0.046564195	0.00098461588	0.00022745226
0.10270172	0.047747746	0.0010078278	0.00022745226
0.10289866	0.052391801	0.0011128847	0.00022745226
0.10309559	0.038357399	0.00080951938	0.00022745512
0.10329253	0.044424299	0.00094042317	0.00022745226
0.10348947	0.036322869	0.00076364371	0.00022745834
0.1036864	0.041891892	0.00088389154	0.00022745226
0.10388333	0.050246749	0.0010585545	0.00022745226
0.10408027	0.04723347	0.00099614379	0.00022746121
0.10427721	0.052914798	0.0011150548	0.00022745226
0.10447414	0.050246749	0.0010592369	0.00022745226
0.10467108	0.043672014	0.00091692299	0.00022745226
0.10486801	0.038891371	0.00081706839	0.00022745226
0.10506494	0.036807094	0.00076990877	0.00022745512
0.10526188	0.03830735	0.00080329331	0.00022745226
0.10545882	0.042076994	0.0008853781	0.00022744617
0.10565575	0.051395658	0.0010767533	0.00022745226
0.10585269	0.042184725	0.00088335236	0.00022745226
0.10604962	0.045494698	0.00095043081	0.00022745512
0.10624656	0.052654866	0.0011026338	0.00022744617
0.10644349	0.041482788	0.00086589303	0.00022744617
0.10664043	0.043593131	0.00090986432	0.00022745226
0.10683736	0.043343652	0.00090650422	0.00022744617
0.1070343	0.048855633	0.0010197295	0.00022744904
0.10723124	0.043288149	0.00090005278	0.00022744617
0.10742817	0.046255507	0.0009657169	0.00022744617
0.1076251	0.052060738	0.0010793891	0.00022744617
0.10782204	0.042637363	0.00088873331	0.00022744617
0.10801897	0.051158722	0.0010641554	0.00022744904
0.10821591	0.049452953	0.0010296121	0.00022744617
0.10841285	0.051874455	0.0010779003	0.00022744617
0.10860978	0.045002162	0.00093103107	0.00022744009
0.10880671	0.053116769	0.0011073094	0.00022744009
0.10900365	0.054380666	0.0011249983	0.00022744904
0.10920059	0.061392132	0.0012711401	0.00022744009
0.10939752	0.053796094	0.0011156379	0.00022744009
0.10959446	0.05572354	0.0011532683	0.00022744009
0.10979139	0.060382277	0.0012533974	0.00022744009
0.10998832	0.052721817	0.0010868754	0.00022744296
0.11018527	0.060370851	0.0012489221	0.00022744009
0.1103822	0.059457131	0.0012294754	0.00022744009
0.11057913	0.058798283	0.0012133307	0.00022743401
0.11077607	0.074870914	0.0015479703	0.00022744009
0.110973	0.070272572	0.0014453345	0.00022743687
0.11116994	0.069260366	0.0014267613	0.00022743401
0.11136688	0.07537473	0.0015550868	0.00022743401
0.11156381	0.065504044	0.0013464508	0.00022743401
0.11176074	0.061111111	0.0012584786	0.00022743401
0.11195768	0.06149279	0.0012618764	0.00022744296
0.11215462	0.067122705	0.0013831913	0.00022743401
0.11235155	0.054329373	0.0011146083	0.00022743401
0.11254849	0.062473617	0.0012785979	0.00022743401
0.11274542	0.058001693	0.0011887539	0.00022743401
0.11294235	0.07000424	0.001437382	0.00022743687
0.11313929	0.057977147	0.001188127	0.00022743401
0.11333623	0.055392362	0.0011301909	0.00022743401
0.11353316	0.068076111	0.0013952957	0.00022742792
0.1137301	0.06806723	0.001390688	0.00022743401
0.11392703	0.064016737	0.0013043307	0.00022743079
0.11412397	0.063418731	0.0012950163	0.00022742792
0.1143209	0.052543085	0.0010727471	0.00022742792
0.11451784	0.053997487	0.0011005605	0.00022742792
0.11471477	0.052874528	0.0010784427	0.00022742792
0.11491171	0.063794531	0.0012940798	0.00022743079
0.11510865	0.069282137	0.001410802	0.00022742792
0.11530558	0.069109075	0.00140557	0.00022742792
0.11550251	0.064826429	0.001321302	0.00022742792
0.11569945	0.074181519	0.0015052343	0.00022742792
0.11589638	0.080264792	0.0016278797	0.00022743079
0.11609332	0.066143036	0.0013402617	0.00022742792
0.11629026	0.076158941	0.0015448008	0.00022742792
0.11648719	0.068210006	0.0013818553	0.00022742184
0.11668412	0.081337735	0.0016477287	0.00022742184
0.11688106	0.076636292	0.0015552498	0.00022742471
0.117078	0.071134865	0.0014377004	0.00022742184
0.11727493	0.07204257	0.0014530534	0.00022742184
0.11747187	0.074089237	0.0014942129	0.00022742184
0.1176688	0.088560887	0.001788786	0.00022742184
0.11786573	0.089521453	0.0018135695	0.00022742471
0.11806267	0.081257656	0.001637526	0.00022742184
0.11825961	0.088488325	0.0017867034	0.00022742184
0.11845654	0.087996759	0.0017675046	0.00022742184
0.11865348	0.1058201	0.0021305326	0.00022742184
0.11885041	0.090946332	0.0018362917	0.00022741863
0.11904735	0.096761137	0.0019425038	0.00022741576
0.11924428	0.11472742	0.0023094991	0.00022741576
0.11944122	0.1262136	0.0025342635	0.00022741576
0.11963815	0.11941511	0.0024019664	0.00022741576
0.11983509	0.12535155	0.0025082631	0.00022741863
0.12003203	0.1312601	0.0026331639	0.00022741576
0.12022896	0.16578627	0.0033373893	0.00022741576
0.12042589	0.20647773	0.0041497871	0.00022741576
0.12062283	0.31262526	0.0062538553	0.00022741576
0.12081976	0.47051746	0.0094183655	0.00022741863
0.1210167	0.75120002	0.015017693	0.00022741576
0.12121364	1.1462035	0.023027541	0.00022740968
0.12141057	1.9005988	0.037965212	0.00022740968
0.1216075	2.9470518	0.059012275	0.00022741576
0.12180444	4.2718949	0.085220322	0.00022741254
0.12200138	5.7237945	0.11425363	0.00022740968
0.12219831	7.1090255	0.14204888	0.00022741576
0.12239525	8.3588123	0.16632804	0.00022741576
0.12259218	9.4430685	0.18873096	0.00022740968
0.12278911	9.9478712	0.19842738	0.00022741254
0.12298606	9.9694204	0.1986627	0.00022740968
0.12318299	9.7046719	0.1930825	0.00022740968
0.12337992	9.2079248	0.18237187	0.00022740968
0.12357686	8.4236412	0.16776153	0.00022740968
0.12377379	7.5732913	0.15052594	0.00022740646
0.12397073	6.8657718	0.1364059	0.00022740968
0.12416767	6.1115475	0.12110715	0.00022740359
0.1243646	5.3091693	0.10507924	0.00022740359
0.12456153	4.3990536	0.087335482	0.00022740359
0.12475847	3.68221	0.072871476	0.00022740646
0.12495541	3.0928769	0.061339252	0.00022739463
0.12515233	2.4276779	0.047985245	0.00022740323
0.12534928	1.8493577	0.036475226	0.00022739751
0.12554622	1.3359406	0.026410291	0.00022739751
0.12574315	0.97901285	0.019293459	0.00022739751
0.12594008	0.69519341	0.013737015	0.00022739751
0.12613702	0.53517294	0.010545696	0.00022740968
0.12633395	0.46432748	0.0091636721	0.00022740968
0.12653089	0.37606508	0.0073965308	0.00022739751
0.12672782	0.3411901	0.0067027048	0.00022739751
0.12692475	0.31113708	0.0061354772	0.00022739751
0.12712169	0.29555896	0.0057790191	0.00022740323
0.12731864	0.27332816	0.0053851893	0.00022739751
0.12751557	0.2689496	0.0052711251	0.00022739751
0.1277125	0.25230768	0.0049438081	0.00022739751
0.12790944	0.22865972	0.0044897655	0.00022739751
0.12810637	0.22337562	0.0043758545	0.00022739751
0.1283033	0.21579149	0.0042206882	0.00022739751
0.12850024	0.21310847	0.0041679749	0.00022739751
0.12869717	0.21223709	0.0041460334	0.00022738535
0.12889411	0.17633499	0.0034521476	0.00022739751
0.12909104	0.16660327	0.0032451595	0.00022740323
0.12928799	0.1767638	0.0034575078	0.00022739751
0.12948492	0.17582418	0.0034184649	0.00022739751
0.12968186	0.1738632	0.0033944228	0.00022738535
0.12987879	0.16260472	0.0031690768	0.00022738535
0.13007572	0.16307227	0.0031677596	0.00022738535
0.13027266	0.15981735	0.00311344	0.00022738535
0.13046959	0.14210129	0.0027584501	0.00022738535
0.13066652	0.14865378	0.0028907633	0.00022738535
0.13086346	0.14858223	0.0028849179	0.00022739751
0.13106039	0.14366092	0.0027782472	0.00022740323
0.13125734	0.14258555	0.0027762854	0.00022738535
0.13145427	0.1367393	0.0026464381	0.00022738535
0.13165121	0.13295668	0.00257651	0.00022738535
0.13184814	0.12101911	0.0023387247	0.00022738535
0.13204508	0.14103526	0.002727445	0.00022738535
0.13224201	0.12953173	0.0025130133	0.00022738535
0.13243894	0.10500748	0.0020258508	0.00022738535
0.13263588	0.12704918	0.0024485001	0.00022738535
0.13283281	0.11967091	0.0023102353	0.00022738535
0.13302974	0.11938623	0.0023057226	0.00022739106
0.13322669	0.10858209	0.0020935598	0.00022738535
0.13342363	0.10637509	0.0020442579	0.00022738535
0.13362056	0.10842926	0.0020855758	0.00022738535
0.13381749	0.11256057	0.0021693117	0.00022737318
0.13401443	0.10119048	0.0019479963	0.00022737318
0.13421136	0.10352505	0.0019901842	0.00022738535
0.1344083	0.10980103	0.002103871	0.00022737318
0.13460523	0.11308204	0.0021699292	0.00022737318
0.13480216	0.10408922	0.0020030879	0.00022737318
0.1349991	0.10777777	0.0020704854	0.0002273789
0.13519605	0.097044878	0.0018498026	0.00022737318
0.13539298	0.10884857	0.0020904492	0.00022737318
0.13558991	0.092307694	0.0017628754	0.00022737318
0.13578685	0.097023152	0.0018562723	0.00022737318
0.13598378	0.098864883	0.0018881711	0.00022737318
0.13618071	0.097201765	0.0018615354	0.00022737318
0.13637765	0.091907725	0.0017550085	0.00022737318
0.13657458	0.09791743	0.0018678869	0.00022737318
0.13677152	0.092201166	0.0017567186	0.00022737318
0.13696845	0.094476745	0.0017972987	0.00022737318
0.13716538	0.094194964	0.0017961253	0.0002273789
0.13736233	0.092206366	0.0017600567	0.00022737318
0.13755926	0.092846818	0.0017609384	0.00022737318
0.1377562	0.084486529	0.0016084518	0.00022737318
0.13795313	0.095065311	0.0018069786	0.00022736102
0.13815007	0.086673893	0.0016432711	0.00022736102
0.138347	0.09137056	0.0017358199	0.00022737318
0.13854393	0.094964027	0.0017974866	0.00022737318
0.13874087	0.091272727	0.0017367387	0.00022736102
0.1389378	0.086642601	0.0016425245	0.00022736102
0.13913473	0.082766034	0.0015629771	0.00022736673
0.13933168	0.081955425	0.0015497828	0.00022737318
0.13952862	0.07396768	0.0013979654	0.00022737318
0.13972555	0.071220927	0.0013539538	0.00022736102
0.13992248	0.078403421	0.0014765973	0.00022736102
0.14011942	0.074220151	0.0014018174	0.00022736102
0.14031635	0.072246067	0.001362619	0.00022737318
0.14051329	0.072779164	0.0013709689	0.00022736102
0.14071022	0.074991032	0.0014168614	0.00022736102
0.14090715	0.076541461	0.0014368967	0.00022736102
0.14110409	0.067118883	0.0012645458	0.00022736673
0.14130104	0.067548245	0.0012732692	0.00022736102
0.14149797	0.064847626	0.0012171192	0.00022736102
0.1416949	0.06527137	0.0012256387	0.00022734885
0.14189184	0.073498234	0.0013782026	0.00022736102
0.14208877	0.077500001	0.001460871	0.00022736102
0.1422857	0.071251333	0.0013378655	0.00022736102
0.14248264	0.076518074	0.0014297998	0.00022736102
0.14267957	0.071985818	0.0013518743	0.00022736102
0.14287651	0.067135327	0.0012552051	0.00022736102
0.14307344	0.066525124	0.0012479075	0.00022735457
0.14327039	0.065354884	0.0012215599	0.00022736102
0.14346732	0.072132304	0.0013494143	0.00022734885
0.14366426	0.065286063	0.0012194534	0.00022734885
0.14386119	0.066339068	0.0012394389	0.00022736102
0.14405812	0.064798601	0.0012088733	0.00022734885
0.14425506	0.072549701	0.0013512606	0.00022734885
0.14445199	0.065591022	0.0012247086	0.00022734885
0.14464892	0.064584062	0.0012060056	0.00022734885
0.14484586	0.067431353	0.0012534341	0.00022734885
0.14504279	0.059274755	0.0011034531	0.00022735457
0.14523974	0.058742225	0.0010884249	0.00022734885
0.14543667	0.064538762	0.0012009324	0.00022733668
0.14563361	0.06490802	0.0012015603	0.00022734885
0.14583054	0.060479667	0.0011196808	0.00022734885
0.14602748	0.071255624	0.0013177334	0.00022734885
0.14622441	0.059190031	0.0010979228	0.00022733668
0.14642134	0.067726329	0.0012555892	0.00022734885
0.14661828	0.071969695	0.0013319097	0.00022733668
0.14681521	0.062738299	0.0011645873	0.00022733668
0.14701214	0.06071059	0.0011239636	0.0002273424
0.14720909	0.062693767	0.0011600978	0.00022733668
0.14740603	0.05894519	0.0010909289	0.00022733668
0.14760296	0.065395094	0.0012034212	0.00022733668
0.14779989	0.068894245	0.0012753714	0.00022733668
0.14799683	0.067171894	0.0012431275	0.00022733668
0.14819376	0.048763737	0.00090025936	0.00022733668
0.1483907	0.061965082	0.001143157	0.00022733668
0.14858763	0.051735874	0.00095124624	0.00022733668
0.14878456	0.05805565	0.0010724188	0.00022733668
0.1489815	0.060677964	0.0011135711	0.0002273424
0.14917845	0.063713796	0.0011726725	0.00022733668
0.14937538	0.055593453	0.001023522	0.00022733668
0.14957231	0.05621402	0.0010309472	0.00022733668
0.14976925	0.047602739	0.00087758357	0.00022733668
0.14996618	0.054937646	0.0010051959	0.00022733668
0.15016311	0.058644067	0.001076565	0.00022732452
0.15036005	0.054743286	0.0010061262	0.00022732452
0.15055698	0.052897573	0.00096779427	0.00022733668
0.15075392	0.052345343	0.00096184539	0.00022733668
0.15095085	0.077490777	0.0014082905	0.00022733024
0.1511478	0.055574268	0.0010116887	0.00022732452
0.15134473	0.066283397	0.0012114008	0.00022733668
0.15154167	0.052331433	0.00095508579	0.00022732452
0.1517386	0.056118999	0.0010282213	0.00022732452
0.15193553	0.063630275	0.0011611503	0.00022732452
0.15213247	0.060504202	0.0011060048	0.00022733668
0.1523294	0.050955415	0.00092980015	0.00022732452
0.15252633	0.057980672	0.0010548647	0.00022732452
0.15272327	0.054867849	0.0010003155	0.00022732452
0.1529202	0.055055056	0.0010025218	0.00022733024
0.15311715	0.0546613	0.00099784706	0.00022732452
0.15331408	0.048188768	0.00087517733	0.00022732452
0.15351102	0.046542551	0.0008454597	0.00022732452
0.15370795	0.058569051	0.001065083	0.00022731235
0.15390489	0.056239601	0.0010227414	0.00022732452
0.15410182	0.056566324	0.001025764	0.00022732452
0.15429875	0.060797341	0.0011048773	0.00022732452
0.15449569	0.047476761	0.00086193293	0.00022731235
0.15469262	0.044672403	0.00080938905	0.00022731235
0.15488955	0.047101449	0.00085173151	0.00022731809
0.1550865	0.049407113	0.00089335558	0.00022732452
0.15528344	0.049370445	0.00089544681	0.00022731235
0.15548037	0.047366679	0.00085902121	0.00022731235
0.1556773	0.060655739	0.001095059	0.00022731235
0.15587424	0.048434924	0.0008759643	0.00022731235
0.15607117	0.045365535	0.00081648614	0.00022731235
0.1562681	0.049455985	0.00089444104	0.00022731235
0.15646504	0.047634691	0.00086016615	0.00022732452
0.15666197	0.051667757	0.00093110889	0.00022731235
0.15685891	0.050343249	0.00090695673	0.00022731809
0.15705585	0.05122349	0.00092183537	0.00022731235
0.15725279	0.044204321	0.00079678796	0.00022731235
0.15744972	0.050065018	0.00089921831	0.00022731235
0.15764666	0.045572918	0.00081871095	0.00022731235
0.15784359	0.046885245	0.00084558141	0.00022731235
0.15804052	0.045719843	0.00081998942	0.00022731235
0.15823746	0.053437602	0.00096116628	0.00022731235
0.15843439	0.048293624	0.00086312945	0.00022731235
0.15863132	0.051880676	0.00093067629	0.00022730019
0.15882826	0.053420197	0.00096058869	0.00022731809
0.15902521	0.052682612	0.00094358035	0.00022730019
0.15922214	0.049886622	0.00089430175	0.00022730019
0.15941907	0.046183452	0.0008236962	0.00022731235
0.15961601	0.055033993	0.00098682242	0.00022730019
0.15981294	0.046683837	0.00083421718	0.00022730019
0.16000988	0.056020606	0.0010017899	0.00022730019
0.16020681	0.055072464	0.00098461483	0.00022730019
0.16040374	0.043924335	0.00078336906	0.00022730019
0.16060068	0.04609929	0.00082420302	0.00022730019
0.16079761	0.046889953	0.00083399459	0.00022730592
0.16099456	0.045933016	0.0008169252	0.00022730019
0.16119149	0.053105891	0.00094939925	0.00022730019
0.16138843	0.052126639	0.00092871679	0.00022730019
0.16158536	0.051586032	0.00091970002	0.00022730019
0.16178229	0.05179536	0.00091973698	0.00022728802
0.16197923	0.039566051	0.00070337218	0.00022728802
0.16217616	0.041958041	0.00074456231	0.00022728802
0.1623731	0.043616682	0.00077486085	0.00022728802
0.16257003	0.047603935	0.00084459037	0.00022728802
0.16276696	0.051778909	0.00091926381	0.00022730592
0.16296391	0.05082592	0.00090218778	0.00022728802
0.16316085	0.043024361	0.00076180196	0.00022730019
0.16335778	0.046820626	0.00082916673	0.00022728802
0.16355471	0.038449418	0.00067914842	0.00022728802
0.16375165	0.044222079	0.00079096586	0.00022728802
0.16394858	0.047743622	0.00085989764	0.00022728802
0.16414551	0.051909894	0.00093447161	0.00022728802
0.16434245	0.045274291	0.00081954268	0.00022728802
0.16453938	0.040890958	0.00074206229	0.00022728802
0.16473632	0.040761776	0.00074153516	0.00022729376
0.16493326	0.046495955	0.00084983051	0.00022728802
0.1651302	0.050989602	0.00092992437	0.00022727586
0.16532713	0.044459645	0.00081838941	0.00022728802
0.16552407	0.053825323	0.0009863982	0.00022727586
0.165721	0.038305085	0.00070174574	0.00022728802
0.16591793	0.04016478	0.0007403504	0.00022727586
0.16611487	0.046280425	0.00085268391	0.00022727586
0.1663118	0.052777778	0.00097978744	0.00022728802
0.16650873	0.059470609	0.0010990381	0.00022728802
0.16670567	0.057182226	0.0010574289	0.00022728159
0.16690262	0.050712053	0.00094124739	0.00022727586
0.16709955	0.054684781	0.0010168018	0.00022727586
0.16729648	0.047752809	0.00089050049	0.00022727586
0.16749342	0.049094707	0.00091244851	0.00022727586
0.16769035	0.04896817	0.00091185141	0.00022727586
0.16788729	0.050141241	0.00093816238	0.00022727586
0.16808422	0.038247567	0.00070953782	0.00022727586
0.16828115	0.042153738	0.00078944641	0.00022727586
0.16847809	0.047067087	0.00087827776	0.00022726369
0.16867502	0.041547276	0.00078245031	0.00022728159
0.16887197	0.048244059	0.00090477243	0.00022727586
0.1690689	0.052612994	0.00098474952	0.00022726369
0.16926584	0.045131486	0.00084688625	0.00022727586
0.16946277	0.050569799	0.00095035991	0.00022727586
0.1696597	0.044588279	0.0008412535	0.00022726369
0.16985664	0.043462772	0.0008167334	0.00022726369
0.17005357	0.047874242	0.00090071617	0.00022727586
0.17025051	0.036651097	0.00069065718	0.00022726369
0.17044744	0.05163141	0.00097396504	0.00022726369
0.17064437	0.042882882	0.00081048236	0.00022726943
0.17084132	0.037796978	0.00071336626	0.00022727586
0.17103826	0.038615666	0.00073316344	0.00022726369
0.17123519	0.040897574	0.00077431055	0.00022726369
0.17143212	0.041051496	0.00077505922	0.00022726369
0.17162906	0.040897574	0.00077400421	0.00022726369
0.17182599	0.041862145	0.00079142232	0.00022726369
0.17202292	0.036082473	0.00068843696	0.00022726369
0.17221986	0.048638839	0.00092264201	0.00022726369
0.17241679	0.04265403	0.00081024045	0.00022726369
0.17261373	0.033904485	0.00064353336	0.00022725726
0.17281067	0.044412088	0.00084324041	0.00022726369
0.17300761	0.047322083	0.00090240443	0.00022726369
0.17320454	0.04118076	0.00078199623	0.00022725153
0.17340147	0.049113736	0.00093955849	0.00022725153
0.17359841	0.040914118	0.00078152493	0.00022725153
0.17379534	0.043334559	0.00082647067	0.00022726369
0.17399228	0.047671434	0.00090871908	0.00022726369
0.17418921	0.048387095	0.00092211086	0.00022725153
0.17438614	0.039077036	0.00074984628	0.00022725153
0.17458308	0.040929202	0.00078221381	0.00022725726
0.17478003	0.030729359	0.00058755424	0.00022725153
0.17497696	0.039556377	0.0007568695	0.00022725153
0.17517389	0.036737692	0.00070025772	0.00022725153
0.17537083	0.04008992	0.0007718954	0.00022723936
0.17556776	0.03138848	0.00059880607	0.00022723936
0.17576469	0.040611029	0.0007794319	0.00022723936
0.17596163	0.042600896	0.00081948313	0.00022725153
0.17615856	0.041187383	0.00078904489	0.00022725153
0.1763555	0.050241906	0.0009650776	0.00022725153
0.17655243	0.05308092	0.0010186341	0.00022724509
0.17674938	0.043576259	0.00084021647	0.00022723936
0.17694631	0.043494564	0.00083816907	0.00022723936
0.17714325	0.036662925	0.00070541486	0.00022725153
0.17734018	0.038302667	0.00073815585	0.00022723936
0.17753711	0.040163629	0.00077021011	0.00022723936
0.17773405	0.041697972	0.00080383045	0.00022723936
0.17793098	0.036981132	0.00071431871	0.00022723936
0.17812791	0.041651033	0.00080253923	0.00022723936
0.17832485	0.039112449	0.0007546345	0.00022723936
0.17852178	0.038012795	0.00073327648	0.00022724509
0.17871873	0.038505096	0.00074372668	0.00022723936
0.17891566	0.038374718	0.00074009597	0.00022723936
0.1791126	0.045334339	0.00087696133	0.00022722721
0.17930953	0.041147605	0.00079513522	0.00022723936
0.17950647	0.041698255	0.00080770638	0.00022723936
0.1797034	0.034782607	0.00067235506	0.00022723936
0.17990033	0.045265939	0.00087516115	0.00022723936
0.18009727	0.039543726	0.00076686521	0.00022722721
0.1802942	0.040893599	0.00079158018	0.00022722721
0.18049113	0.04247991	0.00082627824	0.00022723294
0.18068808	0.042061388	0.00081443012	0.00022722721
0.18088502	0.042061388	0.00081409584	0.00022722721
0.18108195	0.041920733	0.00081377174	0.00022722721
0.18127888	0.044849865	0.00086957117	0.00022722721
0.18147582	0.044274811	0.00086005079	0.00022722721
0.18167275	0.036418818	0.00070499332	0.00022722721
0.18186969	0.035249043	0.00068568025	0.00022722721
0.18206662	0.045245398	0.00088110118	0.00022722721
0.18226355	0.048826646	0.00094567222	0.00022721505
0.18246049	0.046413504	0.00090499374	0.00022723294
0.18265744	0.034746088	0.00067476119	0.00022721505
0.18285437	0.029976942	0.00058332214	0.00022722721
0.1830513	0.036937285	0.00072010339	0.00022722721
0.18324824	0.040761903	0.00079117692	0.00022721505
0.18344517	0.040353574	0.00078645954	0.00022721505
0.1836421	0.038726993	0.00075381709	0.00022721505
0.18383904	0.037692308	0.00073502545	0.00022721505
0.18403597	0.042275172	0.00082439114	0.00022721505
0.18423291	0.039630625	0.00077314669	0.00022721505
0.18442984	0.041069351	0.00080393342	0.00022722078
0.18462679	0.040644173	0.00079140853	0.00022721505
0.18482372	0.03046664	0.00059394591	0.00022721505
0.18502066	0.036894698	0.00071901619	0.00022721505
0.18521759	0.033255994	0.00064956717	0.00022721505
0.18541452	0.029047251	0.00056762481	0.00022721505
0.18561146	0.038179714	0.00074543088	0.00022721505
0.18580839	0.038936008	0.00076023029	0.00022721505
0.18600532	0.035230353	0.00068883435	0.00022720288
0.18620226	0.03104385	0.00060762232	0.00022721505
0.18639919	0.042989932	0.00084175792	0.00022722078
0.18659614	0.034883723	0.00068239635	0.00022720288
0.18679307	0.032761309	0.00064196676	0.00022720288
0.18699001	0.034016237	0.00066475751	0.00022720288
0.18718694	0.040840141	0.0008010958	0.00022720288
0.18738388	0.028801844	0.00056014233	0.00022720288
0.18758081	0.034131031	0.00067163387	0.00022721505
0.18777774	0.036533229	0.00071611302	0.00022720288
0.18797468	0.033878505	0.00066437072	0.00022720288
0.18817161	0.037412316	0.0007344443	0.00022719071
0.18836854	0.039473683	0.00077219383	0.00022720861
0.18856549	0.044846576	0.00088513631	0.00022719071
0.18876243	0.03814714	0.00074805605	0.00022720288
0.18895936	0.039376218	0.00077346782	0.00022720288
0.18915629	0.037514653	0.00073737931	0.00022719071
0.18935323	0.044904333	0.00088275608	0.00022719071
0.18955016	0.034523342	0.00067950209	0.00022720288
0.1897471	0.036533229	0.00071627705	0.00022719071
0.18994403	0.037949923	0.00074626273	0.00022720288
0.19014096	0.031508468	0.00062072551	0.00022719071
0.1903379	0.030751266	0.00060228957	0.00022719646
0.19053484	0.037022449	0.00073037995	0.00022719071
0.19073178	0.036993768	0.00072565192	0.00022719071
0.19092871	0.032651454	0.0006428787	0.00022719071
0.19112565	0.035968378	0.00071024761	0.00022719071
0.19132258	0.034684334	0.00068046071	0.00022719071
0.19151951	0.045687277	0.00090235245	0.00022719071
0.19171645	0.031814612	0.00062634982	0.00022719071
0.19191338	0.035840884	0.000706647	0.00022717856
0.19211031	0.034117647	0.00067141856	0.00022719071
0.19230725	0.040047113	0.00078877638	0.00022719646
0.1925042	0.037713379	0.00074676308	0.00022719071
0.19270113	0.03383163	0.00066659879	0.00022719071
0.19289806	0.031114612	0.00061319646	0.00022719071
0.193095	0.037994515	0.00074757868	0.00022717856
0.19329193	0.034140531	0.00067575049	0.00022719071
0.19348887	0.03243671	0.00064073293	0.00022717856
0.1936858	0.034604799	0.00068173022	0.00022717856
0.19388273	0.0394633	0.00077954674	0.00022717856
0.19407967	0.03164557	0.00062478188	0.00022717856
0.1942766	0.038660821	0.00076716748	0.0002271843
0.19447355	0.03403756	0.0006688764	0.00022717856
0.19467048	0.034482758	0.00068213523	0.00022717856
0.19486742	0.034810126	0.00068780762	0.0002271664
0.19506435	0.031783871	0.00062928151	0.0002271664
0.19526128	0.036697246	0.00072828669	0.0002271664
0.19545822	0.034077555	0.0006699661	0.0002271664
0.19565515	0.03444133	0.00068498345	0.0002271664
0.19585209	0.038492065	0.00076255918	0.0002271664
0.19604902	0.034441806	0.00068073795	0.0002271664
0.19624595	0.030278884	0.00059986807	0.00022717213
0.1964429	0.035066981	0.00069139985	0.00022717856
0.19663984	0.036458332	0.00072516606	0.0002271664
0.19683677	0.030817859	0.00060854905	0.0002271664
0.1970337	0.034744408	0.00069019198	0.0002271664
0.19723064	0.036154151	0.00071654632	0.0002271664
0.19742757	0.034948371	0.00069209072	0.0002271664
0.1976245	0.044158973	0.00087989023	0.00022715423
0.19782144	0.040775929	0.00080667663	0.0002271664
0.19801837	0.044728436	0.00088888605	0.0002271664
0.19821531	0.036697246	0.00072819949	0.00022715998
0.19841225	0.038614649	0.0007658758	0.0002271664
0.19860919	0.039231386	0.00078034314	0.00022715423
0.19880612	0.030519223	0.00060334447	0.00022715423
0.19900306	0.033373542	0.00066432497	0.00022715423
0.19919999	0.039489429	0.00078444381	0.00022715423
0.19939692	0.045019921	0.00089387677	0.00022715423
0.19959386	0.035080645	0.00069967424	0.0002271664
0.19979079	0.030254778	0.00059915171	0.00022715423
0.19998772	0.037274551	0.00074106088	0.00022715423
0.20018466	0.03229665	0.00064073969	0.00022715998
0.20038161	0.034579813	0.00068883639	0.00022715423
0.20057854	0.028411364	0.0005640965	0.00022715423
0.20077547	0.02796644	0.00055452232	0.00022715423
0.20097241	0.033024568	0.00065743749	0.00022715423
0.20116934	0.032747604	0.00065016409	0.00022715423
0.20136628	0.034205232	0.0006815861	0.00022714208
0.20156321	0.041232988	0.0008200446	0.00022715423
0.20176014	0.031438936	0.00062651763	0.00022714208
0.20195708	0.03282626	0.00065250829	0.00022715423
0.20215401	0.031287607	0.00062199886	0.00022715998
0.20235096	0.033830043	0.00067441468	0.00022714208
0.20254789	0.032813124	0.00065191998	0.00022714208
0.20274483	0.034888439	0.00069798424	0.00022714208
0.20294176	0.036814727	0.00073161192	0.00022714208
0.20313869	0.031123687	0.00062029593	0.00022714208
0.20333563	0.022626262	0.00045067066	0.00022714208
0.20353256	0.032258064	0.00063909747	0.00022712992
0.2037295	0.03290008	0.00065827416	0.00022712992
0.20392643	0.029235082	0.00058048434	0.00022714208
0.20412336	0.03409091	0.00068164303	0.00022714782
0.20432031	0.031438936	0.00062662218	0.00022714208
0.20451725	0.036086608	0.00071782043	0.00022714208
0.20471418	0.034930952	0.00069954811	0.00022712992
0.20491111	0.028788485	0.00057130971	0.00022714208
0.20510805	0.036570501	0.00073258363	0.00022712992
0.20530498	0.041599356	0.00083092053	0.00022712992
0.20550191	0.033721399	0.00067087857	0.00022712992
0.20569885	0.036326531	0.0007292683	0.00022712992
0.20589578	0.036888532	0.00073398917	0.00022712992
0.20609272	0.033808555	0.00067785673	0.00022713565
0.20628966	0.034260377	0.00068313943	0.00022712992
0.2064866	0.034888439	0.00069817557	0.00022711777
0.20668353	0.037398376	0.00074943993	0.00022712992
0.20688047	0.033037871	0.00065843144	0.00022712992
0.2070774	0.034035657	0.00067998632	0.00022711777
0.20727433	0.031413611	0.00062555185	0.00022711777
0.20747127	0.029735234	0.00059567328	0.00022711777
0.2076682	0.030056864	0.00060077064	0.00022712992
0.20786513	0.028698465	0.00057220797	0.00022712992
0.20806207	0.034201954	0.00068556797	0.0002271235
0.20825902	0.040371418	0.00080628617	0.00022711777
0.20845595	0.042379789	0.00085043983	0.00022711777
0.20865288	0.039595958	0.00079024606	0.00022711777
0.20884982	0.035524704	0.00071233395	0.00022711777
0.20904675	0.037021969	0.00074195868	0.00022711777
0.20924369	0.027991887	0.00055897562	0.0002271056
0.20944062	0.03523694	0.00070435589	0.00022711777
0.20963755	0.034454804	0.00068886683	0.00022711777
0.20983449	0.030016446	0.00060356868	0.00022711777
0.21003142	0.02637987	0.00052655255	0.00022711133
0.21022837	0.027687296	0.00055430859	0.00022711777
0.2104253	0.032599837	0.00065315439	0.00022711777
0.21062224	0.031842001	0.00063451758	0.0002271056
0.21081917	0.030902348	0.0006223066	0.0002271056
0.2110161	0.03603239	0.00072061183	0.0002271056
0.21121304	0.03135179	0.00062809692	0.0002271056
0.21140997	0.037097432	0.00074441079	0.0002271056
0.2116069	0.027777778	0.00055641588	0.0002271056
0.21180384	0.033155955	0.00066596956	0.0002271056
0.21200077	0.031111112	0.00062066462	0.00022711133
0.21219772	0.02345679	0.00047160167	0.00022709343
0.21239465	0.027526705	0.00055287965	0.0002271056
0.21259159	0.032087732	0.00064219115	0.0002271056
0.21278852	0.036734693	0.00073733908	0.0002271056
0.21298546	0.032061689	0.000641722	0.00022709343
0.21318239	0.037953794	0.00076629117	0.00022709343
0.21337932	0.036931816	0.00073970208	0.00022709343
0.21357626	0.031875767	0.0006397292	0.0002271056
0.21377319	0.031366076	0.00063246908	0.0002271056
0.21397012	0.032560032	0.00065257878	0.00022709918
0.21416707	0.037188392	0.00074724219	0.00022709343
0.21436401	0.030167142	0.00060441688	0.00022709343
0.21456094	0.032867707	0.00066153711	0.00022709343
0.21475787	0.03325123	0.00066884258	0.00022708128
0.21495481	0.035962403	0.00072243396	0.00022709343
0.21515174	0.035231464	0.00070849899	0.00022709343
0.21534868	0.027425297	0.0005502011	0.00022708128
0.21554561	0.036228903	0.00073057582	0.00022709343
0.21574254	0.030228758	0.00060649478	0.00022708128
0.21593948	0.031275719	0.00063006987	0.00022709918
0.21613643	0.035303775	0.0007107791	0.00022708128
0.21633336	0.038540386	0.00077567348	0.00022708128
0.21653029	0.036154479	0.00072851597	0.00022708128
0.21672723	0.033047736	0.00066322362	0.00022709343
0.21692416	0.032989692	0.00066543469	0.00022708128
0.21712109	0.030390143	0.0006113589	0.00022708128
0.21731803	0.032032855	0.00064446469	0.00022708128
0.21751496	0.035405517	0.00071385427	0.00022708128
0.2177119	0.036659878	0.00073517935	0.00022708128
0.21790883	0.02700457	0.0005453694	0.00022708702
0.21810578	0.029003268	0.00058146671	0.00022708128
0.21830271	0.025206612	0.00050745101	0.00022708128
0.21849965	0.025925925	0.00052104826	0.00022706912
0.21869658	0.030278232	0.00060685637	0.00022708128
0.21889351	0.028192371	0.00056917162	0.00022706912
0.21909045	0.032363784	0.00065049727	0.00022706912
0.21928738	0.030540653	0.00061567838	0.00022706912
0.21948431	0.030940594	0.00062402542	0.00022706912
0.21968125	0.03000411	0.00060388714	0.00022706912
0.21987818	0.032191496	0.00064904219	0.00022707487
0.22007513	0.03356529	0.00067436491	0.00022706912
0.22027206	0.038573205	0.00078040437	0.00022706912
0.220469	0.036124796	0.00072714314	0.00022706912
0.22066593	0.031456955	0.0006353319	0.00022705697
0.22086287	0.030053521	0.00060514896	0.00022705697
0.2210598	0.035022661	0.00070567185	0.00022705697
0.22125673	0.028961523	0.00058426289	0.00022705697
0.22145367	0.028512396	0.00057439553	0.00022705697
0.2216506	0.034297522	0.00069251546	0.00022706912
0.22184753	0.027983539	0.00056310609	0.00022707487
0.22204448	0.030290456	0.00061197008	0.00022705697
0.22224142	0.026402641	0.00053177454	0.00022705697
0.22243835	0.034639176	0.00069835596	0.00022705697
0.22263528	0.034411278	0.00069534924	0.00022705697
0.22283222	0.027549341	0.00055368757	0.00022704482
0.22302915	0.033305578	0.00067437458	0.00022705697
0.22322609	0.026848409	0.00054077536	0.00022704482
0.22342302	0.035347309	0.00071170408	0.00022704482
0.22361995	0.03279369	0.00066328759	0.00022705697
0.22381689	0.033443436	0.00067454658	0.0002270627
0.22401384	0.030480167	0.00061808265	0.00022704482
0.22421077	0.03292181	0.0006629611	0.00022704482
0.2244077	0.033126295	0.00066936051	0.00022704482
0.22460464	0.033707865	0.00068288052	0.00022704482
0.22480157	0.039014373	0.00078565313	0.00022704482
0.2249985	0.039412998	0.00080161763	0.00022704482
0.22519544	0.02704918	0.00054240029	0.00022704482
0.22539237	0.028274428	0.00057216175	0.00022704482
0.22558931	0.025512338	0.00051742012	0.00022704482
0.22578624	0.026971802	0.00053982128	0.00022703838
0.22598319	0.027905039	0.00056470284	0.00022703265
0.22618012	0.024390243	0.00049121061	0.00022704482
0.22637706	0.027208038	0.00055194442	0.00022704482
0.22657399	0.031910487	0.00064507336	0.00022703265
0.22677092	0.027363185	0.00055277726	0.00022703265
0.22696786	0.03150912	0.00063657726	0.00022703265
0.22716479	0.031884059	0.00064416189	0.00022704482
0.22736172	0.017147636	0.0003460295	0.00022703265
0.22755866	0.02355372	0.00047393283	0.00022703265
0.22775559	0.027162557	0.00055082608	0.00022703265
0.22795253	0.035240464	0.00071286608	0.00022703838
0.22814947	0.029485051	0.00059589691	0.00022703265
0.22834641	0.031094527	0.00062834844	0.00022703265
0.22854334	0.027835479	0.00056233729	0.0002270205
0.22874027	0.026061371	0.00052926148	0.00022703265
0.22893721	0.027238959	0.00054837595	0.00022703265
0.22913414	0.030366056	0.00061461446	0.0002270205
0.22933108	0.029900333	0.00060472905	0.0002270205
0.22952801	0.027928304	0.00056528114	0.0002270205
0.22972494	0.027905039	0.00056457485	0.0002270205
0.22992188	0.02694859	0.00054354308	0.00022703838
0.23011883	0.024513947	0.00049895718	0.0002270205
0.23031576	0.032204788	0.00064966106	0.0002270205
0.23051269	0.027465668	0.00055523723	0.0002270205
0.23070963	0.028750001	0.00058159145	0.0002270205
0.23090656	0.03233831	0.00065337872	0.00022700834
0.23110349	0.029362416	0.00059643778	0.00022700834
0.23130043	0.031289112	0.00063448562	0.0002270205
0.23149736	0.029950082	0.00060647668	0.0002270205
0.2316943	0.033834588	0.0006863107	0.0002270205
0.23189123	0.029472811	0.00059552584	0.00022701408
0.23208818	0.028080469	0.00057003711	0.00022700834
0.23228511	0.017485429	0.00035236691	0.00022700834
0.23248205	0.024655245	0.00049909274	0.00022700834
0.23267898	0.019689988	0.00039841721	0.00022700834
0.23287591	0.024937656	0.00050396804	0.00022700834
0.23307285	0.031785864	0.00064509682	0.00022700834
0.23326978	0.030859049	0.00062533276	0.00022700834
0.23346671	0.029215358	0.00059220765	0.00022700834
0.23366365	0.031959631	0.00065005146	0.00022700834
0.23386058	0.024624374	0.00049859332	0.00022701408
0.23405753	0.03261767	0.00065795379	0.00022699618
0.23425446	0.026083298	0.00053021079	0.00022700834
0.2344514	0.027684564	0.00056228309	0.00022699618
0.23464833	0.023401588	0.00047388164	0.00022699618
0.23484527	0.029682275	0.00060225086	0.00022700834
0.2350422	0.030100334	0.00061032863	0.00022700834
0.23523913	0.03191936	0.00064927986	0.00022699618
0.23543607	0.025811823	0.00052195357	0.00022699618
0.235633	0.028846154	0.0005853867	0.00022699618
0.23582993	0.029325513	0.00059531356	0.00022700192
0.23602688	0.030736841	0.00062602683	0.00022698403
0.23622382	0.032513548	0.00065913744	0.00022699618
0.23642075	0.028380634	0.0005745035	0.00022699618
0.23661768	0.02263202	0.00045847154	0.00022698403
0.23681462	0.025252525	0.00051310839	0.00022698403
0.23701155	0.028416215	0.00057609146	0.00022699618
0.23720849	0.023391813	0.00047327665	0.00022698403
0.23740542	0.023929471	0.00048532049	0.00022699618
0.23760235	0.031446543	0.00063881936	0.00022698403
0.23779929	0.030239396	0.00061492529	0.00022698977
0.23799624	0.030884808	0.00062518602	0.00022698403
0.23819317	0.03152585	0.00064077426	0.00022698403
0.2383901	0.016792612	0.00033959578	0.00022698403
0.23858704	0.022622539	0.00045786222	0.00022698403
0.23878397	0.023889355	0.00048470858	0.00022698403
0.2389809	0.020973155	0.00042514532	0.00022697187
0.23917784	0.023118958	0.00046865345	0.00022697187
0.23937477	0.033698399	0.00068634219	0.00022698403
0.23957171	0.025125628	0.00050924509	0.00022697187
0.23976864	0.021267723	0.00042961095	0.00022697762
0.23996559	0.021894736	0.0004441835	0.00022697187
0.24016252	0.021573603	0.00043856862	0.00022697187
0.24035946	0.028973157	0.00059272168	0.00022697187
0.24055639	0.030431107	0.00062053971	0.00022697187
0.24075332	0.025979556	0.00053111895	0.00022697187
0.24095026	0.033033032	0.00067860028	0.00022697187
0.24114719	0.025106383	0.00051300594	0.00022697187
0.24134412	0.022269808	0.00045599238	0.00022697187
0.24154106	0.021570319	0.0004427091	0.00022697187
0.24173799	0.034527406	0.00071227964	0.00022696547
0.24193494	0.039930556	0.00082713721	0.00022697187
0.24213187	0.033132531	0.00068248698	0.00022695972
0.24232881	0.029733274	0.00061620277	0.00022697187
0.24252574	0.027109751	0.00056122354	0.00022695972
0.24272268	0.035807859	0.00074307539	0.00022695972
0.24291961	0.026420079	0.00054926291	0.00022695972
0.24311654	0.033507399	0.00069398526	0.00022695972
0.24331348	0.02087961	0.00043527139	0.00022695972
0.24351041	0.023368606	0.00048544447	0.00022695972
0.24370734	0.032130282	0.00066857284	0.00022696547
0.24390429	0.022686834	0.00047332636	0.00022695972
0.24410123	0.029964222	0.00062850048	0.00022695972
0.24429816	0.027531084	0.00057496951	0.00022694757
0.24449509	0.026039287	0.00055125618	0.00022694757
0.24469203	0.022119816	0.00046935532	0.00022695972
0.24488896	0.023898782	0.0005117628	0.00022694757
0.2450859	0.026328161	0.00056459493	0.00022694757
0.24528283	0.026975865	0.00058053777	0.00022694757
0.24547976	0.023843586	0.00051515055	0.00022694757
0.2456767	0.03657363	0.00079483044	0.0002269533
0.24587364	0.024050023	0.00052206963	0.00022694757
0.24607058	0.034968432	0.00076455029	0.0002269354
0.24626751	0.017926356	0.00038930753	0.00022694757
0.24646445	0.022648942	0.00049623387	0.00022694757
0.24666138	0.026535627	0.0005818819	0.00022694757
0.24685831	0.031573754	0.00069406274	0.0002269354
0.24705525	0.020367611	0.00044822821	0.0002269354
0.24725218	0.023964053	0.00052974146	0.0002269354
0.24744911	0.025641026	0.00056941266	0.00022694757
0.24764605	0.026486756	0.00058558257	0.00022694115
0.247843	0.027693857	0.0006148743	0.0002269354
0.24803993	0.026584867	0.00059477502	0.0002269354
0.24823686	0.017939517	0.00040040445	0.0002269354
0.2484338	0.020366598	0.00045331821	0.00022692325
0.24863073	0.024691358	0.00055281364	0.0002269354
0.24882767	0.020576132	0.00046062877	0.00022692325
0.2490246	0.024314538	0.00054624496	0.00022692325
0.24922153	0.026123302	0.00059030089	0.00022692325
0.24941847	0.024390243	0.00054956245	0.00022692325
0.2496154	0.023721665	0.00053788204	0.000226929
0.24981235	0.024287222	0.00055131468	0.00022692965
0.25000927	0.02454308	0.00055396598	0.00022692325
0.2502062	0.028266666	0.00064536586	0.0002269354
0.25040314	0.025423728	0.00057836674	0.0002269111
0.25060007	0.01676582	0.00038284026	0.0002269226
0.25079703	0.019764958	0.00045038413	0.0002269111
0.25099397	0.019881785	0.00045301532	0.0002269111
0.2511909	0.02116115	0.00048504691	0.0002269111
0.25138783	0.026386645	0.00060491246	0.0002269111
0.25158477	0.022888284	0.00052744336	0.0002269111
0.2517817	0.026200874	0.00060509233	0.0002269111
0.25197864	0.032876711	0.0007624916	0.0002269111
0.25217557	0.025484765	0.00059230975	0.0002269111
0.2523725	0.023600439	0.00054567354	0.0002269111
0.25256944	0.037242912	0.00087054912	0.0002269111
0.25276637	0.029428095	0.00068605418	0.0002269111
0.2529633	0.027359018	0.00063811673	0.0002268868
0.25316024	0.032094594	0.00075341592	0.0002269111
0.25335717	0.026151223	0.00061629678	0.0002269111
0.25355411	0.026947862	0.0006443648	0.0002269111
0.25375104	0.018050542	0.00043395133	0.0002269111
0.25394797	0.027173912	0.00065916497	0.0002268868
0.25414491	0.019656019	0.00047914771	0.0002269111
0.25434184	0.023402909	0.00058031717	0.0002269111
0.25453877	0.026041666	0.0006554799	0.0002269226
0.25473574	0.023505708	0.00060008402	0.0002268868
0.25493267	0.029291553	0.00075498142	0.0002269111
0.25512961	0.027816411	0.00072409655	0.0002269111
0.25532654	0.025550036	0.00066978659	0.0002269111
0.25552347	0.018208303	0.00048164607	0.0002268868
0.25572041	0.018939395	0.00050924503	0.0002269111
0.25591734	0.021880064	0.00061146537	0.0002269111
0.25611427	0.033533964	0.00097104936	0.0002268868
0.25631121	0.033789955	0.0010069387	0.0002268868
0.25650814	0.028275212	0.00085288705	0.0002268868
0.25670508	0.02516941	0.00076827465	0.0002268868
0.25690201	0.035940804	0.001147719	0.0002268868
0.25709894	0.025813693	0.00084458344	0.0002268868
0.25729588	0.0188902	0.00062092528	0.0002268868
0.25749281	0.025179856	0.00084734079	0.0002268868
0.25768974	0.023899371	0.00081826176	0.0002268868
0.25788668	0.028460544	0.00099206413	0.0002268868
0.25808361	0.02670227	0.0009491028	0.0002268868
0.25828055	0.020519836	0.00073021854	0.0002268868
0.25847748	0.031473532	0.0011563187	0.00022689829
0.25867444	0.020378457	0.00074561982	0.00022686248
0.25887138	0.036697246	0.0014032887	0.00022686248
0.25906831	0.020061728	0.00075289293	0.00022686248
0.25926524	0.025356578	0.00096996565	0.0002268868
0.25946218	0.023411371	0.00091310695	0.00022686248
0.25965911	0.035653651	0.0014280477	0.0002268868
0.25985605	0.039861351	0.0016147227	0.0002268868
0.26005298	0.020833334	0.00083182228	0.00022686248
0.26024991	0.02972028	0.0012066195	0.00022686248
0.26044685	0.030357143	0.0012456342	0.0002268868
0.26064378	0.023172906	0.00094081758	0.00022686248
0.26084071	0.043165468	0.0017773721	0.00022686248
0.26103765	0.025782689	0.0010434585	0.00022686248
0.26123458	0.027777778	0.0011109966	0.00022686248
0.26143152	0.032075472	0.0013329021	0.0002268868
0.26162845	0.040665433	0.001687377	0.00022686248
0.26182538	0.028680688	0.0012069651	0.00022686248
0.26202232	0.025440313	0.0010823215	0.00022686248
0.26221925	0.035714287	0.0015475553	0.00022686248
0.26241618	0.034416825	0.0014543419	0.00022684968
0.26261315	0.037698414	0.0016360574	0.00022683818
0.26281008	0.032520324	0.0014150854	0.00022686248
0.26300701	0.02258727	0.00097689801	0.00022686248
0.26320395	0.018108651	0.00076660037	0.00022683818
0.26340088	0.027484143	0.0012154306	0.00022686248
0.26359782	0.035564855	0.0015681236	0.00022683818
0.26379475	0.021367522	0.00093803054	0.00022686248
0.26399168	0.023504274	0.0010275609	0.00022683818
0.26418862	0.021739131	0.00095186895	0.00022683818
0.26438555	0.013422819	0.00058021059	0.00022683818
0.26458248	0.029748283	0.0013687926	0.00022683818
0.26477942	0.024663677	0.0011147603	0.00022683818
0.26497635	0.020979021	0.00095606426	0.00022686248
0.26517329	0.027972028	0.0012945172	0.00022683818
0.26537022	0.026894866	0.0012695299	0.00022683818
0.26556715	0.036057692	0.0017099848	0.00022683818
0.26576409	0.027227722	0.0012931903	0.00022683818
0.26596102	0.017676767	0.00082343799	0.00022683818
0.26615795	0.012953368	0.00059046934	0.00022683818
0.26635489	0.020460358	0.00096913654	0.00022684968
0.26655185	0.02917772	0.0014347	0.00022681388
0.26674879	0.016438356	0.00078653323	0.00022683818
0.26694572	0.027027028	0.0013198556	0.00022683818
0.26714265	0.019178081	0.00093063869	0.00022681388
0.26733959	0.02259887	0.0011251317	0.00022681388
0.26753652	0.028571429	0.00145091	0.00022681388
0.26773345	0.03021148	0.0015777431	0.00022683818
0.26793039	0.029850746	0.0015495416	0.00022683818
0.26812732	0.029585799	0.0015289371	0.00022683818
0.26832426	0.0125	0.00060610141	0.00022683818
0.26852119	0.025396826	0.0013406599	0.00022683818
0.26871812	0.019292604	0.001000275	0.00022683818
0.26891506	0.0096463021	0.00044733656	0.00022681388
0.26911199	0.0067340066	0.00027676596	0.00022683818
0.26930892	0.020134227	0.001066513	0.00022683818
0.26950586	0.017301038	0.00091184472	0.00022683818
0.26970279	0.020618556	0.0011052707	0.00022681388
0.26989973	0.032608695	0.0018279891	0.00022681388
0.27009666	0.0074906368	0.0003247603	0.00022681388
0.27029359	0	0	0.00022684968
0.27049056	0.0036630037	0	0.00022681388
0.27068749	0	0	0.00022681388
0.27088442	0	0	0.00022681388
0.27108136	0.0041841003	0	0.00022681388
0.27127829	0.0042016809	0	0.00022681388
0.27147523	0	0	0.00022681388
0.27167216	0	0	0.00022681388
0.27186909	0	0	0.00022681388
0.27206603	0	0	0.00022681388
0.27226296	0	0	0.00022681388
