#   DataFileName=PAL30_160C_WAXS_08172017.tif
#   DataFileType=.tif
#   
#   DataFilePath=E:DATA:PAL30_08262017:
#   
#   Processed on=Wed, Jan 16, 2019,2:40:35 AM
#   Units=Arbitrary
#   SampleThickness=1
#   SampleTransmission=1
#   CorrectionFactor=1
#   SampleMeasurementTime=1
#   EmptyMeasurementTime=1
#   BackgroundMeasTime=1
#   SampleI0=1
#   EmptyI0=1
#   Nika_SampleToDetectorDistacne=1552.1
#   Nika_Wavelength=1.54
#   Nika_XrayEnergy=8.0509
#   Nika_PixelSizeX=0.075
#   Nika_PixelSizeY=0.075
#   Nika_HorizontalTilt=0
#   Nika_VerticalTilt=0
#   Nika_BeamCenterX=1540.3
#   Nika_BeamCenterY=830.17
#   Nika_BeamSizeX=0
#   Nika_BeamCenterY=830.17
#   CalibrationFormula=1*((Sa2D))
#   CurrentMaskFileName=PAL30_30C_WAXS_mask.hdf
#   QvectorMaxNumPnts=1
#   QvectorNumberPoints=1383
#   CircularAverage=1
#   PolarizationCorrection=None
#   UncertainityCalculationMethod=OldNikaMethod

0.0060065244	4	2.7386129	0.00022756745
0.00620346	3.24	0.64145666	0.00022756765
0.0064003952	3.9122808	0.51593775	0.00022756765
0.0065973303	4.3125	0.47975221	0.00022756765
0.0067942655	6.8469386	0.68217158	0.00022756765
0.0069912006	8.9252338	0.8373158	0.00022756745
0.0071881362	9.4098358	0.83039254	0.00022756727
0.0073850714	10.458015	0.89376396	0.00022756727
0.0075820065	9.2068968	0.75046998	0.00022756727
0.0077789417	8.7755098	0.71233189	0.00022756745
0.0079758773	7.8670888	0.61671364	0.00022756746
0.0081728119	7.0368099	0.54263562	0.00022756707
0.0083697475	6.1741571	0.45634881	0.00022756671
0.0085666822	5.1139898	0.36297256	0.00022756783
0.0087636178	5.1743588	0.36506593	0.00022756783
0.0089605534	4.109005	0.27940083	0.00022756746
0.0091574881	3.6375546	0.2377928	0.00022756707
0.0093544237	3.3599999	0.21043339	0.00022756671
0.0095513584	2.8288972	0.17242624	0.00022756707
0.009748294	2.75	0.16478886	0.00022756707
0.0099452296	2.6570396	0.1580371	0.00022756595
0.010142164	2.3884892	0.14172074	0.00022756707
0.0103391	2	0.11474111	0.00022756671
0.010536035	1.9457628	0.11193635	0.00022756707
0.01073297	1.6611842	0.094500132	0.00022756783
0.010929906	1.6559485	0.09308292	0.00022756746
0.01112684	1.6261981	0.090992495	0.00022756783
0.011323776	1.4668674	0.079838037	0.00022756746
0.011520711	1.3628049	0.074426018	0.00022756707
0.011717646	1.3431953	0.072407365	0.00022756707
0.011914582	1.2631578	0.067744195	0.00022756746
0.012111517	1.0956522	0.058491509	0.00022756783
0.012308452	1.1016483	0.057399828	0.00022756671
0.012505387	1.0112995	0.053234823	0.00022756783
0.012702323	0.9285714	0.047458548	0.00022756783
0.012899258	0.76139408	0.039103687	0.00022756671
0.013096193	0.74345547	0.037749223	0.00022756707
0.013293128	0.81074166	0.040657558	0.00022756671
0.013490063	0.76288658	0.038349763	0.00022756707
0.013686999	0.70343137	0.034514021	0.00022756707
0.013883934	0.73479319	0.035997622	0.00022756671
0.014080869	0.67703348	0.032874901	0.00022756707
0.014277805	0.57882351	0.027907832	0.00022756671
0.014474739	0.58865249	0.028433146	0.0002275663
0.014671675	0.5598194	0.026386514	0.00022756707
0.014868611	0.5181818	0.024500605	0.00022756671
0.015065545	0.46153846	0.021491442	0.0002275663
0.015262481	0.53433478	0.024582772	0.00022756671
0.015459416	0.51648355	0.024102217	0.00022756595
0.01565635	0.42217484	0.019409722	0.00022756707
0.015853286	0.3715499	0.01701222	0.00022756554
0.016050221	0.34432989	0.015545777	0.00022756707
0.016247157	0.37246963	0.016655847	0.00022756707
0.016444093	0.35800001	0.015895953	0.00022756483
0.016641026	0.38955823	0.017366024	0.00022756707
0.016837962	0.3266533	0.014522917	0.00022756707
0.017034898	0.34630349	0.01516612	0.00022756554
0.017231833	0.30975142	0.013468305	0.00022756554
0.017428769	0.31499052	0.013648745	0.00022756483
0.017625703	0.27663553	0.011888928	0.00022756554
0.017822638	0.25512105	0.010928465	0.00022756554
0.018019574	0.30147058	0.012832536	0.00022756554
0.018216509	0.28832117	0.012237517	0.00022756554
0.018413445	0.30411449	0.012791515	0.00022756483
0.018610379	0.26855123	0.011237235	0.00022756554
0.018807314	0.25130889	0.010425849	0.00022756554
0.01900425	0.26343155	0.0108828	0.00022756554
0.019201186	0.25	0.010395193	0.00022756554
0.019398121	0.22780569	0.0092766387	0.00022756483
0.019595055	0.22033899	0.0090180002	0.00022756554
0.019791991	0.22479339	0.0090821972	0.00022756554
0.019988926	0.21157025	0.0085623087	0.00022756554
0.020185862	0.20424837	0.0082187289	0.00022756554
0.020382797	0.1799363	0.0071371188	0.00022756483
0.020579731	0.21035598	0.008413312	0.00022756403
0.020776667	0.2617555	0.010175351	0.00022756403
0.020973602	0.20500782	0.0080605736	0.00022756554
0.021170538	0.1671875	0.0065654218	0.00022756403
0.021367474	0.15837105	0.0061185872	0.0002275633
0.021564407	0.16563468	0.0064821481	0.00022756403
0.021761343	0.18086697	0.0069531188	0.00022756403
0.021958278	0.17647059	0.0068187751	0.00022756403
0.022155214	0.15712188	0.0059870724	0.00022756403
0.02235215	0.14389534	0.0054553924	0.0002275633
0.022549083	0.1380323	0.0052511953	0.00022756403
0.022746019	0.13049646	0.0048850365	0.00022756403
0.022942955	0.16642755	0.0062722168	0.00022756403
0.02313989	0.14427157	0.0054004272	0.00022756403
0.023336826	0.15062761	0.0055938764	0.0002275633
0.02353376	0.14205344	0.005296303	0.00022756403
0.023730695	0.17774762	0.0065141493	0.00022756403
0.023927631	0.15586206	0.0057655131	0.0002275625
0.024124566	0.15281501	0.0055671716	0.00022756403
0.024321502	0.16219839	0.005912174	0.00022756179
0.024518436	0.15838926	0.005773792	0.0002275625
0.024715371	0.12121212	0.0043744436	0.0002275625
0.024912307	0.14663143	0.0053032022	0.0002275625
0.025109243	0.12404092	0.0044117998	0.0002275625
0.025306178	0.13842173	0.0049546361	0.00022756179
0.025503112	0.1238825	0.0043995562	0.0002275625
0.025700048	0.14739518	0.0052225222	0.0002275625
0.025896983	0.13358779	0.0047408463	0.0002275625
0.026093919	0.11330049	0.0039540003	0.00022756097
0.026290854	0.10794045	0.0037779207	0.00022756179
0.026487788	0.10121951	0.0035119071	0.0002275625
0.026684724	0.12469438	0.0043385373	0.00022756097
0.026881659	0.099878199	0.0034608194	0.0002275625
0.027078595	0.12410501	0.0042626425	0.00022756097
0.027275531	0.11191336	0.0038591097	0.00022756179
0.027472464	0.11059371	0.0037527378	0.00022756097
0.0276694	0.099290781	0.003391416	0.00022756097
0.027866336	0.096287705	0.0032568525	0.00022756097
0.028063271	0.087209299	0.0029508427	0.00022756097
0.028260207	0.08857809	0.0030031598	0.00022756026
0.028457141	0.11447811	0.0038154919	0.00022756097
0.028654076	0.087400682	0.0029250807	0.00022756097
0.028851012	0.10626398	0.003534053	0.00022756097
0.029047947	0.10638298	0.0035419781	0.00022756097
0.029244883	0.11023622	0.003678814	0.00022756026
0.029441817	0.086056642	0.0028215048	0.00022756097
0.029638752	0.090109892	0.0029686871	0.00022755946
0.029835688	0.094929881	0.0031005982	0.00022756097
0.030032624	0.088172041	0.0028738386	0.00022755946
0.030229559	0.088744588	0.0028979478	0.00022755875
0.030426493	0.088297874	0.0028619764	0.00022755946
0.030623429	0.10543131	0.0034229052	0.00022755946
0.030820364	0.070175439	0.0022378948	0.00022755946
0.0310173	0.077812828	0.0025046789	0.00022755946
0.031214235	0.090248965	0.0028887633	0.00022755946
0.031411171	0.095482543	0.0030420364	0.00022755875
0.031608105	0.085832469	0.0027445245	0.00022755571
0.031805038	0.072800808	0.0022981616	0.00022756017
0.032001976	0.075834177	0.0023951728	0.00022755875
0.03219891	0.078391962	0.0024692176	0.00022756017
0.032395847	0.084915087	0.0026671644	0.00022755875
0.032592781	0.081429988	0.002549343	0.00022755875
0.032789715	0.077299416	0.0024026225	0.00022756017
0.032986652	0.08275862	0.0025826709	0.00022755571
0.033183586	0.079844207	0.0024744666	0.00022755713
0.033380523	0.094412334	0.0029156096	0.00022755875
0.033577457	0.096339114	0.0029742648	0.00022755571
0.033774391	0.07530982	0.0023100565	0.00022755713
0.033971328	0.087786257	0.0026975917	0.00022755571
0.034168262	0.085146643	0.0026046333	0.00022756017
0.0343652	0.085768141	0.0026172728	0.00022755571
0.034562133	0.091922008	0.0027869532	0.00022755571
0.034759067	0.082560293	0.0025005946	0.00022756017
0.034956004	0.087037034	0.0026331351	0.00022755571
0.035152938	0.072146118	0.0021659874	0.00022755713
0.035349876	0.075729929	0.0022737193	0.00022755571
0.035546809	0.068058074	0.0020362746	0.00022755571
0.035743743	0.07699275	0.0023045824	0.00022755713
0.035940681	0.083408073	0.0024846522	0.00022755571
0.036137614	0.081705153	0.0024209649	0.00022755713
0.036334552	0.072824158	0.0021572674	0.00022755266
0.036531486	0.084656082	0.0025005247	0.00022755266
0.036728419	0.059082892	0.0017417392	0.00022755713
0.036925357	0.059999999	0.0017564506	0.00022755571
0.037122291	0.06863597	0.0020101343	0.00022755713
0.037319228	0.083188906	0.0024357839	0.00022755571
0.037516162	0.093299404	0.0027048425	0.00022755266
0.037713096	0.075407028	0.0021948789	0.00022755713
0.037910033	0.07069847	0.0020511679	0.00022755266
0.038106967	0.06446141	0.0018647573	0.00022755409
0.038303904	0.075105488	0.0021701346	0.00022755266
0.038500838	0.067387685	0.0019321664	0.00022755266
0.038697772	0.074380167	0.0021261836	0.00022755409
0.038894709	0.07450331	0.0021314675	0.00022755266
0.039091643	0.061207611	0.0017491117	0.00022755409
0.03928858	0.073770493	0.0021003508	0.00022755266
0.039485514	0.072298944	0.0020482962	0.00022755266
0.039682448	0.07636068	0.0021644435	0.00022755409
0.039879385	0.080321282	0.0022647413	0.00022755266
0.040076319	0.058400001	0.0016389181	0.00022755409
0.040273257	0.069823436	0.0019664089	0.00022754962
0.04047019	0.076372318	0.002143011	0.00022754962
0.040667124	0.056393962	0.00157811	0.00022755409
0.040864062	0.061767004	0.0017162631	0.00022755266
0.041060995	0.083203733	0.0023100108	0.00022755409
0.041257933	0.070202805	0.0019505345	0.00022754962
0.041454867	0.06692607	0.0018563258	0.00022755266
0.0416518	0.071595334	0.00198643	0.00022755409
0.041848738	0.069465652	0.0019082512	0.00022754962
0.042045671	0.062357415	0.0017084364	0.00022754801
0.042242609	0.085171103	0.0023387144	0.00022754657
0.042439543	0.070615031	0.0019358464	0.00022754353
0.042636476	0.066867016	0.0018229594	0.00022754801
0.042833414	0.076807231	0.0020974942	0.00022754657
0.043030348	0.055265125	0.0015006128	0.00022754801
0.043227285	0.065731168	0.0017751077	0.00022754353
0.043424219	0.060427412	0.0016297183	0.00022754353
0.043621153	0.063970588	0.0017250519	0.00022754801
0.04381809	0.065982401	0.0017766064	0.00022754353
0.044015024	0.068763718	0.001849325	0.00022754495
0.044211961	0.072463766	0.0019411927	0.00022754353
0.044408895	0.071942449	0.0019198891	0.00022754353
0.044605829	0.070402302	0.0018770142	0.00022754495
0.044802766	0.062410329	0.0016616449	0.00022754353
0.0449997	0.063526049	0.0016875933	0.00022754495
0.045196638	0.062897526	0.0016626038	0.00022754353
0.045393571	0.06666667	0.0017657613	0.00022754353
0.045590505	0.056762438	0.0014929165	0.00022754495
0.045787442	0.061009817	0.001606015	0.00022754048
0.045984376	0.071527779	0.0018756872	0.00022754191
0.046181314	0.057598889	0.0015075837	0.00022754353
0.046378247	0.080110498	0.0020964157	0.00022754048
0.046575181	0.064226523	0.0016785312	0.00022754191
0.046772119	0.061000686	0.0015875406	0.00022754353
0.046969052	0.063308373	0.0016430434	0.00022754495
0.04716599	0.06475801	0.0016814553	0.00022754048
0.047362924	0.070080861	0.0018095293	0.00022754048
0.047559857	0.05764075	0.0014832462	0.00022754495
0.047756795	0.076561451	0.0019735831	0.00022754048
0.047953729	0.065057009	0.0016756014	0.00022754495
0.048150666	0.061048441	0.0015638003	0.00022754048
0.0483476	0.057067022	0.0014609512	0.00022754048
0.048544534	0.062868372	0.0015993817	0.00022754191
0.048741471	0.062623598	0.0015970224	0.00022753744
0.048938405	0.063843645	0.0016200205	0.00022754191
0.049135342	0.066841416	0.0017017336	0.00022754048
0.049332276	0.051198963	0.0012940731	0.00022753744
0.04952921	0.054980595	0.0013887602	0.00022753887
0.049726147	0.063185044	0.0015943391	0.00022753744
0.049923081	0.057631411	0.0014406851	0.00022754191
0.050120018	0.05690537	0.0014301683	0.00022753744
0.050316952	0.055662189	0.0013976396	0.00022753744
0.050513886	0.045079365	0.0011261789	0.00022753887
0.050710823	0.049461003	0.00123521	0.00022753744
0.050907757	0.058348853	0.0014444414	0.00022753887
0.051104695	0.054341037	0.0013476233	0.00022753744
0.051301628	0.054307114	0.0013467229	0.00022753744
0.051498562	0.072409488	0.0017995569	0.00022753887
0.0516955	0.055040199	0.0013572839	0.00022753744
0.051892433	0.055691555	0.0013677083	0.00022753887
0.052089371	0.054938272	0.0013554262	0.0002275344
0.052286305	0.059502125	0.0014558909	0.00022753744
0.052483238	0.06018237	0.0014741834	0.00022753583
0.052680176	0.057750762	0.0014141015	0.0002275344
0.052877109	0.046808511	0.0011451606	0.00022753887
0.053074047	0.059674501	0.0014557091	0.0002275344
0.053270981	0.052537315	0.0012730834	0.00022753744
0.053467914	0.053699285	0.0013026532	0.00022753887
0.053664852	0.063492067	0.0015584872	0.0002275344
0.053861786	0.059442725	0.0014688128	0.00022753583
0.054058723	0.06849315	0.0016978915	0.0002275344
0.054255657	0.050711192	0.001251316	0.0002275344
0.054452591	0.048155095	0.001194531	0.00022753583
0.054649528	0.057392389	0.0014233714	0.0002275344
0.054846462	0.048275862	0.0011979996	0.00022753583
0.055043399	0.04410838	0.0010973471	0.00022753136
0.055240333	0.062539481	0.0015616516	0.0002275344
0.055437267	0.054820415	0.0013664152	0.00022753583
0.055634204	0.041927408	0.0010389527	0.00022753136
0.055831138	0.050664976	0.0012650181	0.00022753279
0.056028076	0.056639396	0.001409873	0.00022753136
0.056225009	0.052465234	0.0013074629	0.00022753136
0.056421943	0.053605616	0.0013428486	0.00022753279
0.05661888	0.057196733	0.0014231915	0.00022753136
0.056815814	0.052168448	0.0012979147	0.00022753279
0.057012752	0.06329114	0.0015810956	0.00022753136
0.057209685	0.06313131	0.001576547	0.00022752832
0.057406619	0.053661615	0.0013383242	0.00022753279
0.057603557	0.068224892	0.001703937	0.00022753136
0.05780049	0.05443038	0.0013576867	0.00022753279
0.057997428	0.064070351	0.0015959051	0.00022752832
0.058194362	0.049873736	0.001243741	0.00022752832
0.058391295	0.060644347	0.0015132509	0.00022752974
0.058588233	0.065162905	0.001619207	0.00022752832
0.058785167	0.050000001	0.0012482649	0.00022752974
0.058982104	0.055311125	0.0013763304	0.00022752832
0.059179038	0.063442208	0.0015787191	0.00022752832
0.059375972	0.067967273	0.001694293	0.00022752974
0.059572909	0.067042604	0.0016684687	0.00022752528
0.059769843	0.061751734	0.0015398994	0.00022752974
0.05996678	0.064436182	0.0015935345	0.00022752528
0.060163714	0.04851922	0.0012074861	0.00022752528
0.060360648	0.044887781	0.0011104961	0.00022752974
0.060557585	0.054477144	0.0013523273	0.00022752528
0.060754519	0.054760423	0.0013563557	0.0002275267
0.060951456	0.04993758	0.0012370809	0.00022752528
0.06114839	0.057871811	0.0014314286	0.00022752528
0.061345324	0.056662515	0.0014038114	0.0002275267
0.061542261	0.059627328	0.0014763117	0.00022752528
0.061739195	0.044776119	0.0011070066	0.0002275267
0.061936133	0.055796653	0.001379382	0.00022752528
0.062133066	0.057549506	0.0014199858	0.00022752528
0.06233	0.05353846	0.0013180496	0.00022752528
0.062526934	0.055624228	0.0013735078	0.0002275251
0.062723875	0.047146402	0.0011642114	0.00022751919
0.062920809	0.053020962	0.0013063625	0.00022752528
0.063117743	0.047737136	0.0011788075	0.00022751919
0.063314676	0.058139537	0.0014284078	0.00022751919
0.06351161	0.050702505	0.0012435822	0.00022752814
0.063708551	0.047823422	0.0011753457	0.00022751919
0.063905485	0.054388132	0.0013427206	0.00022751919
0.064102419	0.0652439	0.0016016202	0.00022751919
0.064299352	0.050214328	0.001233526	0.00022752528
0.064496286	0.051250763	0.0012573145	0.00022752205
0.064693227	0.054070473	0.0013237706	0.00022751919
0.064890161	0.044848483	0.0010942974	0.00022751919
0.065087095	0.05497862	0.0013494908	0.00022752528
0.065284029	0.054367747	0.0013347047	0.00022752528
0.065480962	0.044188861	0.0010784054	0.00022752205
0.065677904	0.054151624	0.001318655	0.00022752528
0.065874837	0.039927404	0.00097260403	0.00022751919
0.066071771	0.054786272	0.0013354701	0.00022751919
0.066268705	0.045344621	0.0011064355	0.00022751919
0.066465639	0.041541241	0.001010447	0.00022752205
0.06666258	0.053892214	0.0013100093	0.00022751919
0.066859514	0.061175045	0.0014957297	0.00022751919
0.067056447	0.060047563	0.0014548512	0.00022751919
0.067253381	0.052600119	0.0012773763	0.00022751919
0.067450315	0.049013749	0.0011893644	0.00022751596
0.067647256	0.067664668	0.0016467188	0.00022751919
0.06784419	0.064148679	0.0015613154	0.00022751919
0.068041123	0.052071005	0.0012574879	0.00022751311
0.068238057	0.049199764	0.0011888718	0.00022751311
0.068434991	0.054664291	0.0013235554	0.00022752205
0.068631932	0.057328604	0.0013848266	0.00022751311
0.068828866	0.047248803	0.0011470221	0.00022751311
0.0690258	0.052016366	0.0012493629	0.00022751311
0.069222733	0.053719006	0.0012966298	0.00022751311
0.069419667	0.052600473	0.0012701451	0.00022751596
0.069616608	0.053927314	0.0012971853	0.00022751311
0.069813542	0.051086318	0.0012300075	0.00022751311
0.070010476	0.051825676	0.0012495915	0.00022751311
0.07020741	0.048434731	0.0011685234	0.00022751311
0.070404343	0.05372617	0.0012827866	0.00022752205
0.070601285	0.065966144	0.0015858467	0.00022751311
0.070798218	0.044741429	0.0010697669	0.00022751311
0.070995152	0.045161292	0.0010844913	0.00022751311
0.071192086	0.048453007	0.0011622449	0.00022751311
0.071389019	0.047180668	0.0011224088	0.00022751596
0.071585961	0.051044084	0.0012211051	0.00022750701
0.071782894	0.045086704	0.0010753558	0.00022751311
0.071979828	0.053395241	0.0012780309	0.00022751311
0.072176762	0.054755043	0.0013063696	0.00022751311
0.072373696	0.049283668	0.0011718031	0.00022751596
0.072570637	0.046376813	0.0011083616	0.00022751311
0.072767571	0.053439453	0.0012658532	0.00022750701
0.072964504	0.050347224	0.001203245	0.00022750701
0.073161438	0.049971607	0.001183126	0.00022751311
0.073358372	0.060640734	0.0014422876	0.00022750988
0.073555313	0.050691243	0.0012083051	0.00022750701
0.073752247	0.053702656	0.0012681693	0.00022751311
0.073949181	0.053652968	0.0012731565	0.00022750701
0.074146114	0.050933786	0.0012034631	0.00022751311
0.074343048	0.041642897	0.00098654442	0.00022750988
0.074539989	0.035775129	0.00084509444	0.00022750701
0.074736923	0.04527669	0.0010628123	0.00022750701
0.074933857	0.043824703	0.0010366956	0.00022750701
0.07513079	0.048986487	0.001154787	0.00022750701
0.075327724	0.052927926	0.0012481475	0.0002275038
0.075524665	0.046760563	0.0011017112	0.00022750701
0.075721599	0.062360801	0.001464257	0.00022750093
0.075918533	0.054054055	0.0012743466	0.00022750701
0.076115467	0.044208169	0.0010385871	0.00022750701
0.0763124	0.046342824	0.0010874588	0.00022750988
0.076509342	0.050055616	0.0011734951	0.00022750701
0.076706275	0.055524707	0.0013016437	0.00022750701
0.076903209	0.042600896	0.0010015253	0.00022750701
0.077100143	0.047382921	0.0011049615	0.00022750093
0.077297077	0.037694015	0.00088019791	0.0002275038
0.077494018	0.043381535	0.0010149205	0.00022750093
0.077690952	0.045079716	0.0010495329	0.00022750093
0.077887885	0.050139274	0.0011757032	0.00022750093
0.078084819	0.046296295	0.0010733274	0.00022750093
0.078281753	0.033021465	0.00076709903	0.0002275038
0.078478694	0.044028617	0.0010247538	0.00022750093
0.078675628	0.04478427	0.0010387597	0.00022750093
0.078872561	0.034178611	0.00079557259	0.00022750093
0.079069495	0.038692098	0.0008949347	0.00022750093
0.079266429	0.037643209	0.00087158964	0.0002275038
0.07946337	0.046892039	0.0010876829	0.00022750093
0.079660304	0.040021632	0.00092416193	0.00022750093
0.079857238	0.049699619	0.0011544006	0.00022750093
0.080054171	0.042725798	0.00098645897	0.00022750093
0.080251105	0.040871933	0.00094629562	0.0002275038
0.080448046	0.054986522	0.001269398	0.00022749485
0.08064498	0.047109209	0.0010824978	0.00022750093
0.080841914	0.049864497	0.0011535021	0.00022750093
0.081038848	0.046673819	0.0010745439	0.00022749485
0.081235781	0.044913419	0.0010378327	0.00022749772
0.081432723	0.053361792	0.0012254512	0.00022749485
0.081629656	0.058666665	0.0013468965	0.00022749485
0.08182659	0.046063203	0.0010580963	0.00022749485
0.082023524	0.041511443	0.00095110544	0.00022749485
0.082220457	0.040085517	0.00091994164	0.00022749772
0.082417399	0.045866668	0.0010521964	0.00022749485
0.082614332	0.04523683	0.0010366887	0.00022749485
0.082811266	0.050982475	0.0011677787	0.00022749485
0.0830082	0.051578946	0.001176196	0.00022749485
0.083205134	0.046511628	0.0010622407	0.00022749163
0.083402075	0.045958795	0.0010488176	0.00022749485
0.083599009	0.064928152	0.0014909881	0.00022749485
0.083795942	0.047743965	0.0010871921	0.00022748877
0.083992876	0.045049764	0.0010247686	0.00022749485
0.08418981	0.055497382	0.0012630505	0.00022749772
0.084386751	0.047619049	0.00108253	0.00022748877
0.084583685	0.049137481	0.0011168593	0.00022749485
0.084780619	0.053097345	0.0012051184	0.00022749485
0.084977552	0.063152403	0.0014354708	0.00022748877
0.085174486	0.041882109	0.00094568275	0.00022749163
0.085371427	0.042641707	0.00096553884	0.00022748877
0.085568361	0.043746784	0.00098532974	0.00022748877
0.085765295	0.04372428	0.00098553719	0.00022748877
0.085962228	0.044838373	0.0010171448	0.00022748877
0.086159162	0.050978374	0.0011504164	0.00022748555
0.086356103	0.051987767	0.001167308	0.00022748877
0.086553037	0.038501028	0.000865774	0.00022748877
0.086749971	0.035551041	0.00079481356	0.00022748877
0.086946905	0.042695474	0.00096161716	0.00022748268
0.087143838	0.048150025	0.0010771118	0.00022749163
0.08734078	0.037225906	0.00083411456	0.00022748877
0.087537713	0.04964539	0.0011109043	0.00022748268
0.087734647	0.043500252	0.00097194634	0.00022748877
0.087931581	0.042682927	0.00095554796	0.00022748877
0.088128515	0.043696634	0.00097272039	0.00022748555
0.088325456	0.041289024	0.0009205094	0.00022748268
0.08852239	0.053670887	0.001200013	0.00022748268
0.088719323	0.04892661	0.0010872055	0.00022748268
0.088916257	0.0501002	0.0011148143	0.00022748268
0.089113191	0.043456543	0.00096484245	0.00022748555
0.089310132	0.054945055	0.0012212773	0.00022748268
0.089507066	0.039840639	0.00088289374	0.00022748268
0.089703999	0.041666668	0.00092148717	0.00022748268
0.089900933	0.037	0.00082163711	0.00022748268
0.090097867	0.044761438	0.00098582334	0.00022747947
0.090294808	0.059820537	0.0013295421	0.00022748268
0.090491742	0.043907251	0.00096936076	0.00022748268
0.090688676	0.046465646	0.0010267657	0.00022748268
0.090885609	0.050839093	0.0011234035	0.0002274766
0.091082543	0.052683406	0.0011630018	0.00022748268
0.091279477	0.044761438	0.000986789	0.00022748555
0.091476418	0.043285783	0.00095377833	0.0002274766
0.091673352	0.041992188	0.00092183572	0.00022748268
0.091870286	0.041728031	0.00091842352	0.0002274766
0.092067219	0.053868756	0.0011857613	0.0002274766
0.092264153	0.042356379	0.0009289271	0.00022747947
0.092461094	0.052682925	0.0011571504	0.0002274766
0.092658028	0.047921762	0.0010536573	0.0002274766
0.092854962	0.05079826	0.0011113413	0.0002274766
0.093051895	0.052199129	0.0011417398	0.0002274766
0.093248829	0.055852357	0.001224685	0.00022747337
0.09344577	0.050749153	0.0011097301	0.0002274766
0.093642704	0.051506318	0.0011293631	0.00022747052
0.093839638	0.05303761	0.0011576455	0.0002274766
0.094036572	0.041366041	0.00090054976	0.0002274766
0.094233505	0.045761079	0.00099861319	0.00022747947
0.094430447	0.049329501	0.0010735276	0.00022747052
0.09462738	0.046859905	0.0010239941	0.00022747052
0.094824314	0.043998089	0.00095602241	0.00022747052
0.095021248	0.040210627	0.00087372767	0.00022747052
0.095218182	0.049976204	0.001084569	0.00022747337
0.095415123	0.043000478	0.00093408488	0.00022747052
0.095612057	0.04144831	0.00089884945	0.00022747052
0.09580899	0.036138847	0.00078193634	0.00022747052
0.096005924	0.046411484	0.0010090027	0.00022747052
0.096202858	0.04646752	0.0010055236	0.00022747337
0.096399799	0.053427897	0.0011556833	0.00022747052
0.096596733	0.044684853	0.00096304674	0.00022746444
0.096793666	0.050567109	0.0010936225	0.00022747052
0.0969906	0.051512286	0.0011136204	0.00022746444
0.097187534	0.045711592	0.00098711054	0.00022747337
0.097384475	0.046764288	0.00101032	0.00022746444
0.097581409	0.049342107	0.0010639899	0.00022747052
0.097778343	0.040949278	0.00087828189	0.00022746444
0.097975276	0.042823531	0.00092294288	0.00022746444
0.09817221	0.044309702	0.0009511559	0.00022746729
0.098369151	0.048561998	0.0010487674	0.00022746444
0.098566085	0.044001851	0.00094062521	0.00022746444
0.098763019	0.040749416	0.00087620772	0.00022746444
0.098959953	0.038390379	0.00081964134	0.00022746444
0.099156886	0.042956121	0.00091757678	0.00022746121
0.099353828	0.042950515	0.00092218793	0.00022746444
0.099550761	0.057156134	0.0012263726	0.00022745834
0.099747695	0.043337945	0.0009247383	0.00022745834
0.099944629	0.046253469	0.00098899798	0.00022745834
0.10014156	0.054712642	0.0011673257	0.00022746121
0.1003385	0.044762343	0.00095590163	0.00022745834
0.10053544	0.044036698	0.00093783491	0.00022746444
0.10073237	0.040892195	0.0008759874	0.00022745834
0.1009293	0.04537122	0.00096570572	0.00022746444
0.10112624	0.040909089	0.00086698128	0.00022746121
0.10132318	0.047794119	0.0010191126	0.00022746444
0.10152011	0.04634257	0.00098183483	0.00022745834
0.10171705	0.040695015	0.00086460635	0.00022745834
0.10191398	0.052871469	0.001123048	0.00022745834
0.10211091	0.04431247	0.0009411198	0.00022746121
0.10230786	0.037744429	0.00079868542	0.00022745834
0.10250479	0.038878843	0.00082167657	0.00022745226
0.10270172	0.04954955	0.0010462018	0.00022745226
0.10289866	0.055580866	0.0011808532	0.00022745226
0.10309559	0.051444042	0.0010872517	0.00022745512
0.10329253	0.041251134	0.00087310578	0.00022745226
0.10348947	0.043049328	0.00090646616	0.00022745834
0.1036864	0.042792793	0.00090302981	0.00022745226
0.10388333	0.050246749	0.0010583838	0.00022745226
0.10408027	0.043184884	0.0009106517	0.00022746121
0.10427721	0.042600896	0.00089706207	0.00022745226
0.10447414	0.048452221	0.0010206683	0.00022745226
0.10467108	0.053475935	0.0011232332	0.00022745226
0.10486801	0.050961107	0.0010718921	0.00022745226
0.10506494	0.050554324	0.0010590816	0.00022745512
0.10526188	0.054342985	0.0011415409	0.00022745226
0.10545882	0.041629363	0.00087579957	0.00022744617
0.10565575	0.051838726	0.0010860872	0.00022745226
0.10585269	0.043072823	0.00090267626	0.00022745226
0.10604962	0.035777386	0.0007468501	0.00022745512
0.10624656	0.052654866	0.0011024766	0.00022744617
0.10644349	0.052515447	0.0010982568	0.00022744617
0.10664043	0.047556143	0.00099291129	0.00022745226
0.10683736	0.049977887	0.0010460516	0.00022744617
0.1070343	0.044454224	0.00092710124	0.00022744904
0.10723124	0.044162657	0.00091872248	0.00022744617
0.10742817	0.059030838	0.0012336549	0.00022744617
0.1076251	0.055965293	0.0011602193	0.00022744617
0.10782204	0.056703296	0.0011838219	0.00022744617
0.10801897	0.050284214	0.0010461626	0.00022744904
0.10821591	0.048140045	0.0010019571	0.00022744617
0.10841285	0.055797733	0.0011595341	0.00022744617
0.10860978	0.054521851	0.0011292394	0.00022744009
0.10880671	0.040825285	0.00085064396	0.00022744009
0.10900365	0.054380666	0.0011245693	0.00022744904
0.10920059	0.057068743	0.0011814798	0.00022744009
0.10939752	0.049891539	0.0010335352	0.00022744009
0.10959446	0.045788337	0.00094676367	0.00022744009
0.10979139	0.053866204	0.0011175264	0.00022744009
0.10998832	0.05486498	0.0011307854	0.00022744296
0.11018527	0.059077188	0.0012218439	0.00022744009
0.1103822	0.056872036	0.00117558	0.00022744009
0.11057913	0.051072963	0.0010533124	0.00022743401
0.11077607	0.047332186	0.00097691978	0.00022744009
0.110973	0.054088585	0.0011113063	0.00022743687
0.11116994	0.058144506	0.0011974871	0.00022743401
0.11136688	0.055674519	0.0011475557	0.00022743401
0.11156381	0.052318163	0.0010745586	0.00022743401
0.11176074	0.043162394	0.00088741863	0.00022743401
0.11195768	0.055555556	0.0011396098	0.00022744296
0.11215462	0.048738778	0.0010031608	0.00022743401
0.11235155	0.056027167	0.0011492115	0.00022743401
0.11254849	0.059518784	0.0012181411	0.00022743401
0.11274542	0.057578325	0.0011801652	0.00022743401
0.11294235	0.056003395	0.0011488127	0.00022743687
0.11313929	0.07321202	0.0015012899	0.00022743401
0.11333623	0.053713806	0.0010957837	0.00022743401
0.11353316	0.059196617	0.0012122826	0.00022742792
0.1137301	0.068487398	0.0013990935	0.00022743401
0.11392703	0.058577407	0.0011935543	0.00022743079
0.11412397	0.055438891	0.0011316154	0.00022742792
0.1143209	0.060949977	0.0012447849	0.00022742792
0.11451784	0.064880706	0.0013230172	0.00022742792
0.11471477	0.070919007	0.0014481697	0.00022742792
0.11491171	0.058409277	0.0011845342	0.00022743079
0.11510865	0.057595994	0.0011718834	0.00022742792
0.11530558	0.067443796	0.0013716231	0.00022742792
0.11550251	0.068172313	0.001389659	0.00022742792
0.11569945	0.065064237	0.0013202069	0.00022742792
0.11589638	0.081092261	0.0016445941	0.00022743079
0.11609332	0.077304669	0.0015672504	0.00022742792
0.11629026	0.070364237	0.0014270225	0.00022742792
0.11648719	0.084332369	0.0017095596	0.00022742184
0.11668412	0.073905863	0.0014973213	0.00022742184
0.11688106	0.08036454	0.001630872	0.00022742471
0.117078	0.069490135	0.0014044697	0.00022742184
0.11727493	0.077773228	0.0015689814	0.00022742184
0.11747187	0.068358578	0.0013787164	0.00022742184
0.1176688	0.071750715	0.0014482271	0.00022742184
0.11786573	0.073432341	0.0014868955	0.00022742471
0.11806267	0.081665985	0.0016456168	0.00022742184
0.11825961	0.072920933	0.0014713408	0.00022742184
0.11845654	0.072992697	0.0014655914	0.00022742184
0.11865348	0.076109074	0.0015308075	0.00022742184
0.11885041	0.070053257	0.0014133041	0.00022741863
0.11904735	0.085829958	0.0017223385	0.00022741576
0.11924428	0.07770545	0.0015625057	0.00022741576
0.11944122	0.067961164	0.0013622262	0.00022741576
0.11963815	0.07514216	0.0015100279	0.00022741576
0.11983509	0.069907591	0.0013966969	0.00022741863
0.12003203	0.077544428	0.0015539164	0.00022741576
0.12022896	0.075985372	0.0015274718	0.00022741576
0.12042589	0.065182187	0.001307265	0.00022741576
0.12062283	0.079759516	0.0015923622	0.00022741576
0.12081976	0.066987567	0.0013368626	0.00022741863
0.1210167	0.074000001	0.0014757259	0.00022741576
0.12121364	0.056946687	0.0011399116	0.00022740968
0.12141057	0.095009983	0.0018935794	0.00022740968
0.1216075	0.085038103	0.0016986695	0.00022741576
0.12180444	0.066878982	0.0013300518	0.00022741254
0.12200138	0.080510162	0.0016031353	0.00022740968
0.12219831	0.078274757	0.0015601112	0.00022741576
0.12239525	0.08118812	0.0016116535	0.00022741576
0.12259218	0.081102677	0.0016166174	0.00022740968
0.12278911	0.081973739	0.001630652	0.00022741254
0.12298606	0.094519459	0.0018794655	0.00022740968
0.12318299	0.084323041	0.0016733686	0.00022740968
0.12337992	0.092193015	0.0018216914	0.00022740968
0.12357686	0.090836972	0.0018048687	0.00022740968
0.12377379	0.097984985	0.0019432578	0.00022740646
0.12397073	0.088827476	0.0017603815	0.00022740968
0.12416767	0.10212097	0.0020196654	0.00022740359
0.1243646	0.097570531	0.0019272983	0.00022740359
0.12456153	0.10488959	0.0020787204	0.00022740359
0.12475847	0.10815047	0.0021366356	0.00022740646
0.12495541	0.11530893	0.0022834528	0.00022739463
0.12515233	0.12666145	0.0024999864	0.00022740323
0.12534928	0.10471001	0.0020617561	0.00022739751
0.12554622	0.1263199	0.0024935468	0.00022739751
0.12574315	0.11698406	0.0023019984	0.00022739751
0.12594008	0.1293474	0.0025525801	0.00022739751
0.12613702	0.143801	0.0028308565	0.00022740968
0.12633395	0.14892788	0.0029364487	0.00022740968
0.12653089	0.18474051	0.0036313247	0.00022739751
0.12672782	0.18199381	0.0035734442	0.00022739751
0.12692475	0.23325545	0.0045984783	0.00022739751
0.12712169	0.28866768	0.005643575	0.00022740323
0.12731864	0.42262831	0.0083286325	0.00022739751
0.12751557	0.62139285	0.012183695	0.00022739751
0.1277125	0.96230769	0.018865693	0.00022739751
0.12790944	1.4886056	0.029248379	0.00022739751
0.12810637	2.1741638	0.04262197	0.00022739751
0.1283033	3.0318129	0.059346169	0.00022739751
0.12850024	4.0459948	0.07920102	0.00022739751
0.12869717	4.9491396	0.096770853	0.00022738535
0.12889411	5.9504418	0.11662005	0.00022739751
0.12909104	6.5557246	0.12784767	0.00022740323
0.12928799	7.1226993	0.13946483	0.00022739751
0.12948492	7.0689654	0.13759838	0.00022739751
0.12968186	6.8807797	0.13449757	0.00022738535
0.12987879	6.308454	0.12309867	0.00022738535
0.13007572	5.7075295	0.11101317	0.00022738535
0.13027266	5.1046424	0.099568166	0.00022738535
0.13046959	4.5139832	0.087744892	0.00022738535
0.13066652	3.9768677	0.07743299	0.00022738535
0.13086346	3.2877126	0.063915245	0.00022739751
0.13106039	2.7816954	0.053861912	0.00022740323
0.13125734	2.3129277	0.045089174	0.00022738535
0.13145427	1.8489857	0.03582684	0.00022738535
0.13165121	1.4346516	0.027833536	0.00022738535
0.13184814	1.0756838	0.020813573	0.00022738535
0.13204508	0.83495873	0.016164588	0.00022738535
0.13224201	0.62613291	0.012162271	0.00022738535
0.13243894	0.46412557	0.0089675738	0.00022738535
0.13263588	0.39381519	0.0075972965	0.00022738535
0.13283281	0.29207179	0.0056443815	0.00022738535
0.13302974	0.2885479	0.005577961	0.00022739106
0.13322669	0.26753733	0.0051639844	0.00022738535
0.13342363	0.23202372	0.0044629448	0.00022738535
0.13362056	0.22911252	0.0044110669	0.00022738535
0.13381749	0.20499441	0.0039537661	0.00022737318
0.13401443	0.19680059	0.0037920801	0.00022737318
0.13421136	0.18627088	0.003584086	0.00022738535
0.1344083	0.19233604	0.0036881685	0.00022737318
0.13460523	0.18773097	0.0036049809	0.00022737318
0.13480216	0.16914499	0.0032572676	0.00022737318
0.1349991	0.15592593	0.0029968861	0.0002273789
0.13519605	0.15797155	0.003013534	0.00022737318
0.13539298	0.16882636	0.0032443425	0.00022737318
0.13558991	0.14322345	0.0027374795	0.00022737318
0.13578685	0.15803014	0.0030258091	0.00022737318
0.13598378	0.14463566	0.0027638192	0.00022737318
0.13618071	0.15022092	0.0028786378	0.00022737318
0.13637765	0.1442695	0.0027569695	0.00022737318
0.13657458	0.13043478	0.0024893705	0.00022737318
0.13677152	0.14395043	0.0027439876	0.00022737318
0.13696845	0.14353198	0.0027318716	0.00022737318
0.13716538	0.14311792	0.0027307793	0.0002273789
0.13736233	0.1262349	0.002410969	0.00022737318
0.13755926	0.1224711	0.0023241406	0.00022737318
0.1377562	0.12636562	0.002407551	0.00022737318
0.13795313	0.12844703	0.0024428847	0.00022736102
0.13815007	0.13181654	0.0025013252	0.00022736102
0.138347	0.10986222	0.0020883712	0.00022737318
0.13854393	0.13165468	0.0024931494	0.00022737318
0.13874087	0.12363636	0.0023538962	0.00022736102
0.1389378	0.11913358	0.0022600063	0.00022736102
0.13913473	0.10963812	0.0020718148	0.00022736673
0.13933168	0.11610352	0.0021976302	0.00022737318
0.13952862	0.10915619	0.0020646544	0.00022737318
0.13972555	0.10356104	0.00197047	0.00022736102
0.13992248	0.12009978	0.0022636219	0.00022736102
0.14011942	0.1115095	0.0021078514	0.00022736102
0.14031635	0.10407725	0.0019646892	0.00022737318
0.14051329	0.10774171	0.0020314238	0.00022736102
0.14071022	0.090419807	0.0017090916	0.00022736102
0.14090715	0.099574767	0.001870883	0.00022736102
0.14110409	0.095680118	0.0018043787	0.00022736673
0.14130104	0.10793424	0.0020368944	0.00022736102
0.14149797	0.10914245	0.0020508738	0.00022736102
0.1416949	0.11067755	0.0020808019	0.00022734885
0.14189184	0.10459364	0.0019626126	0.00022736102
0.14208877	0.10214286	0.001926765	0.00022736102
0.1422857	0.091811411	0.0017251032	0.00022736102
0.14248264	0.088452086	0.0016535738	0.00022736102
0.14267957	0.093971632	0.0017657512	0.00022736102
0.14287651	0.095254831	0.0017825036	0.00022736102
0.14307344	0.094125971	0.001767142	0.00022735457
0.14327039	0.099086434	0.0018537841	0.00022736102
0.14346732	0.10274455	0.0019238258	0.00022734885
0.14366426	0.098280095	0.0018377919	0.00022734885
0.14386119	0.096525095	0.0018049207	0.00022736102
0.14405812	0.10052539	0.0018776797	0.00022734885
0.14425506	0.08510638	0.001585856	0.00022734885
0.14445199	0.095405124	0.0017828937	0.00022734885
0.14464892	0.084942088	0.0015879963	0.00022734885
0.14484586	0.082377478	0.0015322062	0.00022734885
0.14504279	0.09483961	0.0017673993	0.00022735457
0.14523974	0.092950933	0.0017242812	0.00022734885
0.14543667	0.090494566	0.0016913452	0.00022733668
0.14563361	0.072544254	0.0013478309	0.00022734885
0.14583054	0.091762252	0.0017072184	0.00022734885
0.14602748	0.086129367	0.0015984604	0.00022734885
0.14622441	0.086188994	0.0016000948	0.00022733668
0.14642134	0.077401519	0.0014352573	0.00022734885
0.14661828	0.07747934	0.0014344138	0.00022733668
0.14681521	0.088388212	0.001642213	0.00022733668
0.14701214	0.091065884	0.0016878438	0.0002273424
0.14720909	0.07475026	0.0013838073	0.00022733668
0.14740603	0.086177178	0.0015961168	0.00022733668
0.14760296	0.086852863	0.001599531	0.00022733668
0.14779989	0.078194968	0.0014477216	0.00022733668
0.14799683	0.084739923	0.001569265	0.00022733668
0.14819376	0.079670332	0.0014730721	0.00022733668
0.1483907	0.075659022	0.0013963869	0.00022733668
0.14858763	0.078965284	0.0014535321	0.00022733668
0.14878456	0.083132945	0.0015375551	0.00022733668
0.1489815	0.070169494	0.0012884145	0.0002273424
0.14917845	0.080408856	0.0014807957	0.00022733668
0.14937538	0.089358799	0.001646942	0.00022733668
0.14957231	0.090755165	0.0016667632	0.00022733668
0.14976925	0.071232878	0.0013148789	0.00022733668
0.14996618	0.073811933	0.0013518512	0.00022733668
0.15016311	0.082711868	0.0015196495	0.00022732452
0.15036005	0.076164573	0.0014011264	0.00022732452
0.15055698	0.069070078	0.0012644241	0.00022733668
0.15075392	0.082596876	0.0015195578	0.00022733668
0.15095085	0.080174439	0.0014649878	0.00022733024
0.1511478	0.074772649	0.00136887	0.00022732452
0.15134473	0.080825157	0.0014829397	0.00022733668
0.15154167	0.088225424	0.0016125742	0.00022732452
0.1517386	0.073698446	0.0013516933	0.00022732452
0.15193553	0.072337575	0.0013204881	0.00022732452
0.15213247	0.06789916	0.0012414646	0.00022733668
0.1523294	0.069057994	0.0012611885	0.00022732452
0.15252633	0.088970341	0.0016209132	0.00022732452
0.15272327	0.071930408	0.0013123206	0.00022732452
0.1529202	0.068735398	0.0012521234	0.00022733024
0.15311715	0.06773977	0.0012370038	0.00022732452
0.15331408	0.075108007	0.0013659098	0.00022732452
0.15351102	0.07114362	0.0012938116	0.00022732452
0.15370795	0.085191347	0.0015507528	0.00022731235
0.15390489	0.068219632	0.0012411108	0.00022732452
0.15410182	0.071121402	0.0012901847	0.00022732452
0.15429875	0.073421925	0.0013350723	0.00022732452
0.15449569	0.076029219	0.0013819747	0.00022731235
0.15469262	0.063203178	0.0011465473	0.00022731235
0.15488955	0.054018445	0.00097713782	0.00022731809
0.1550865	0.064888008	0.0011742653	0.00022732452
0.15528344	0.061298873	0.0011124908	0.00022731235
0.15548037	0.056310035	0.0010216661	0.00022731235
0.1556773	0.072131149	0.0013029255	0.00022731235
0.15587424	0.069851726	0.0012644164	0.00022731235
0.15607117	0.074086159	0.0013349584	0.00022731235
0.1562681	0.065611608	0.0011882309	0.00022731235
0.15646504	0.061760843	0.0011162036	0.00022732452
0.15666197	0.060824066	0.0010967449	0.00022731235
0.15685891	0.069957502	0.0012618091	0.00022731809
0.15705585	0.079608485	0.0014327402	0.00022731235
0.15725279	0.076293387	0.0013754637	0.00022731235
0.15744972	0.061118335	0.0010986415	0.00022731235
0.15764666	0.065755211	0.0011831251	0.00022731235
0.15784359	0.069180325	0.0012492426	0.00022731235
0.15804052	0.064526588	0.0011585222	0.00022731235
0.15823746	0.070707068	0.0012729452	0.00022731235
0.15843439	0.069542818	0.001244484	0.00022731235
0.15863132	0.063229568	0.0011353291	0.00022730019
0.15882826	0.064169385	0.00115478	0.00022731809
0.15902521	0.058177117	0.0010427104	0.00022730019
0.15922214	0.062196307	0.0011160505	0.00022730019
0.15941907	0.058050033	0.0010362174	0.00022731235
0.15961601	0.066364519	0.0011905129	0.00022730019
0.15981294	0.056664519	0.0010132545	0.00022730019
0.16000988	0.059884094	0.0010708561	0.00022730019
0.16020681	0.056038648	0.0010021406	0.00022730019
0.16040374	0.062840655	0.0011217505	0.00022730019
0.16060068	0.072211474	0.0012929685	0.00022730019
0.16079761	0.061881978	0.0011019167	0.00022730592
0.16099456	0.064433813	0.0011472132	0.00022730019
0.16119149	0.068233021	0.0012205247	0.00022730019
0.16138843	0.068755999	0.0012261645	0.00022730019
0.16158536	0.056071773	0.0010000856	0.00022730019
0.16178229	0.062917061	0.0011179773	0.00022728802
0.16197923	0.065411612	0.0011651843	0.00022728802
0.16217616	0.063890658	0.0011357547	0.00022728802
0.1623731	0.0614454	0.0010929576	0.00022728802
0.16257003	0.060933039	0.0010821886	0.00022728802
0.16276696	0.054955527	0.00097610708	0.00022730592
0.16296391	0.062579416	0.0011117485	0.00022728802
0.16316085	0.06232205	0.0011049826	0.00022730019
0.16335778	0.057260361	0.0010151434	0.00022728802
0.16355471	0.057989284	0.0010261266	0.00022728802
0.16375165	0.056488056	0.0010113444	0.00022728802
0.16394858	0.06115108	0.0011022489	0.00022728802
0.16414551	0.05452171	0.00098170387	0.00022728802
0.16434245	0.051553205	0.00093335542	0.00022728802
0.16453938	0.070478722	0.0012809642	0.00022728802
0.16473632	0.0491146	0.00089405198	0.00022729376
0.16493326	0.049865231	0.00091181597	0.00022728802
0.1651302	0.050654143	0.00092401745	0.00022727586
0.16532713	0.054035567	0.00099560886	0.00022728802
0.16552407	0.057210561	0.0010487895	0.00022727586
0.165721	0.06338983	0.0011635714	0.00022728802
0.16591793	0.063851699	0.0011792423	0.00022727586
0.16611487	0.061021596	0.0011261711	0.00022727586
0.1663118	0.052430555	0.00097322621	0.00022728802
0.16650873	0.057064284	0.0010542357	0.00022728802
0.16670567	0.055459868	0.0010257488	0.00022728159
0.16690262	0.049670026	0.00092194305	0.00022727586
0.16709955	0.057471264	0.0010690081	0.00022727586
0.16729648	0.044241574	0.00082528323	0.00022727586
0.16749342	0.059888579	0.0011133903	0.00022727586
0.16769035	0.061559986	0.0011472635	0.00022727586
0.16788729	0.061440676	0.0011506183	0.00022727586
0.16808422	0.052503478	0.00097521441	0.00022727586
0.16828115	0.049592633	0.00092930353	0.00022727586
0.16847809	0.050579559	0.00094384572	0.00022726369
0.16867502	0.057664756	0.0010871501	0.00022728159
0.16887197	0.068109259	0.0012783543	0.00022727586
0.1690689	0.055084746	0.0010313246	0.00022726369
0.16926584	0.047974415	0.00090062933	0.00022727586
0.16946277	0.048789173	0.00091682165	0.00022727586
0.1696597	0.052499101	0.0009916299	0.00022726369
0.16985664	0.049162809	0.00092394417	0.00022726369
0.17005357	0.050375134	0.00094823627	0.00022727586
0.17025051	0.055695292	0.0010519123	0.00022726369
0.17044744	0.04195052	0.00079062558	0.00022726369
0.17064437	0.046126127	0.00087159808	0.00022726943
0.17084132	0.052195825	0.00098616478	0.00022727586
0.17103826	0.047723133	0.00090696849	0.00022726369
0.17123519	0.051755339	0.00098080817	0.00022726369
0.17143212	0.05257472	0.00099386752	0.00022726369
0.17162906	0.052479189	0.00099458895	0.00022726369
0.17182599	0.060988814	0.0011548422	0.00022726369
0.17202292	0.057805598	0.0011052209	0.00022726369
0.17221986	0.058439203	0.0011093857	0.00022726369
0.17241679	0.053590957	0.0010193718	0.00022726369
0.17261373	0.053590957	0.0010193242	0.00022725726
0.17281067	0.053148888	0.0010100038	0.00022726369
0.17300761	0.05319149	0.0010149094	0.00022726369
0.17320454	0.055758018	0.0010605414	0.00022725153
0.17340147	0.048375186	0.00092584	0.00022725153
0.17359841	0.051234797	0.00097946683	0.00022725153
0.17379534	0.049210429	0.0009391667	0.00022726369
0.17399228	0.045837916	0.0008740768	0.00022726369
0.17418921	0.044721406	0.00085218193	0.00022725153
0.17438614	0.051358391	0.00098679354	0.00022725153
0.17458308	0.048672568	0.00093076925	0.00022725726
0.17478003	0.046649389	0.00089368713	0.00022725153
0.17497696	0.044362292	0.0008487851	0.00022725153
0.17517389	0.049963262	0.00095367397	0.00022725153
0.17537083	0.044585988	0.00085894129	0.00022723936
0.17556776	0.061299853	0.0011735202	0.00022723936
0.17576469	0.054023843	0.0010367836	0.00022723936
0.17596163	0.050822124	0.00097831932	0.00022725153
0.17615856	0.047866419	0.00091802131	0.00022725153
0.1763555	0.050614066	0.00097237015	0.00022725153
0.17655243	0.048626579	0.0009329028	0.00022724509
0.17674938	0.045454547	0.00087678601	0.00022723936
0.17694631	0.049118862	0.00094677287	0.00022723936
0.17714325	0.044519268	0.00085695263	0.00022725153
0.17734018	0.044686444	0.00086166186	0.00022723936
0.17753711	0.042023055	0.00080630503	0.00022723936
0.17773405	0.050713748	0.00097886892	0.00022723936
0.17793098	0.053207546	0.0010293865	0.00022723936
0.17812791	0.043151971	0.0008320284	0.00022723936
0.17832485	0.053403534	0.0010315154	0.00022723936
0.17852178	0.048927363	0.0009450395	0.00022724509
0.17871873	0.046432614	0.00089787313	0.00022723936
0.17891566	0.050790068	0.00098091678	0.00022723936
0.1791126	0.054401208	0.0010528783	0.00022722721
0.17930953	0.047187619	0.00091267569	0.00022723936
0.17950647	0.053070508	0.001029191	0.00022723936
0.1797034	0.044234406	0.00085613335	0.00022723936
0.17990033	0.04488872	0.0008672722	0.00022723936
0.18009727	0.041064639	0.00079627597	0.00022722721
0.1802942	0.051495645	0.00099750736	0.00022722721
0.18049113	0.044393416	0.00086428842	0.00022723294
0.18068808	0.045850702	0.00088845857	0.00022722721
0.18088502	0.044334974	0.00085905514	0.00022722721
0.18108195	0.05144817	0.00099976908	0.00022722721
0.18127888	0.046370201	0.00089962519	0.00022722721
0.18147582	0.048473284	0.00094285846	0.00022722721
0.18167275	0.044764794	0.00086779054	0.00022722721
0.18186969	0.049425289	0.00096276874	0.00022722721
0.18206662	0.05023006	0.00097874028	0.00022722721
0.18226355	0.040878121	0.00079119927	0.00022721505
0.18246049	0.052167241	0.0010173647	0.00022723294
0.18265744	0.053073693	0.0010321905	0.00022721505
0.18285437	0.044196773	0.00086210307	0.00022722721
0.1830513	0.032704886	0.00063749944	0.00022722721
0.18324824	0.044571429	0.00086587371	0.00022721505
0.18344517	0.042659491	0.00083234324	0.00022721505
0.1836421	0.044478528	0.00086690561	0.00022721505
0.18383904	0.04423077	0.00086303218	0.00022721505
0.18403597	0.045734052	0.00089239783	0.00022721505
0.18423291	0.040400155	0.00078803871	0.00022721505
0.18442984	0.045331266	0.00088791578	0.00022722078
0.18462679	0.052147239	0.0010170569	0.00022721505
0.18482372	0.045507133	0.00088921055	0.00022721505
0.18502066	0.045734052	0.00089252507	0.00022721505
0.18521759	0.044083528	0.00086257223	0.00022721505
0.18541452	0.04415182	0.00086451048	0.00022721505
0.18561146	0.048592363	0.00094992452	0.00022721505
0.18580839	0.043176562	0.00084356713	0.00022721505
0.18600532	0.03910182	0.00076501654	0.00022720288
0.18620226	0.043849438	0.00085964776	0.00022721505
0.18639919	0.039116964	0.00076576468	0.00022722078
0.18659614	0.041085273	0.00080440089	0.00022720288
0.18679307	0.048361935	0.00095098058	0.00022720288
0.18699001	0.044839583	0.00087722059	0.00022720288
0.18718694	0.049397122	0.00096994458	0.00022720288
0.18738388	0.040706605	0.00079351867	0.00022720288
0.18758081	0.052961946	0.0010442227	0.00022721505
0.18777774	0.041585699	0.00081535726	0.00022720288
0.18797468	0.049065422	0.00096383161	0.00022720288
0.18817161	0.043257989	0.00084978365	0.00022719071
0.18836854	0.03869969	0.00075695087	0.00022720861
0.18856549	0.036978755	0.00072933774	0.00022719071
0.18876243	0.036200855	0.00071001746	0.00022720288
0.18895936	0.046393763	0.00091164897	0.00022720288
0.18915629	0.033997655	0.0006675215	0.00022719071
0.18935323	0.036704414	0.00072098762	0.00022719071
0.18955016	0.039623383	0.00078068534	0.00022720288
0.1897471	0.04003109	0.00078482181	0.00022719071
0.18994403	0.041079812	0.00080815895	0.00022720288
0.19014096	0.037022449	0.00073037995	0.00022719071
0.1903379	0.045153756	0.00088625774	0.00022719646
0.19053484	0.051201262	0.0010116287	0.00022719071
0.19073178	0.044392522	0.00087206491	0.00022719071
0.19092871	0.042486232	0.0008387125	0.00022719071
0.19112565	0.043478262	0.00085990835	0.00022719071
0.19132258	0.042478565	0.00083431386	0.00022719071
0.19151951	0.044899568	0.0008868436	0.00022719071
0.19171645	0.035349566	0.00069620012	0.00022719071
0.19191338	0.046081133	0.00090997422	0.00022717856
0.19211031	0.036078431	0.00071019569	0.00022719071
0.19230725	0.032979976	0.00064943184	0.00022719646
0.1925042	0.038507342	0.0007626852	0.00022719071
0.19270113	0.038945712	0.00076821714	0.00022719071
0.19289806	0.03977944	0.00078499131	0.00022719071
0.193095	0.043478262	0.0008559323	0.00022717856
0.19329193	0.034934498	0.00069140701	0.00022719071
0.19348887	0.038370252	0.00075861538	0.00022717856
0.1936858	0.045615416	0.00090002123	0.00022717856
0.19388273	0.031965271	0.00063070742	0.00022717856
0.19407967	0.034414556	0.00067974796	0.00022717856
0.1942766	0.049820647	0.00099025969	0.0002271843
0.19447355	0.044600938	0.00087800954	0.00022717856
0.19467048	0.042013478	0.00083226681	0.00022717856
0.19486742	0.035996836	0.00071178697	0.0002271664
0.19506435	0.04171633	0.00082671375	0.0002271664
0.19526128	0.043478262	0.00086357509	0.0002271664
0.19545822	0.046220135	0.00091039104	0.0002271664
0.19565515	0.040849019	0.00081282668	0.0002271664
0.19585209	0.034523811	0.00068317092	0.0002271664
0.19604902	0.040775929	0.00080690737	0.0002271664
0.19624595	0.043027889	0.00085428654	0.00022717213
0.1964429	0.042159181	0.00083265116	0.00022717856
0.19663984	0.042467948	0.00084550516	0.0002271664
0.19683677	0.03595417	0.00071026111	0.0002271664
0.1970337	0.039536741	0.00078561087	0.0002271664
0.19723064	0.032578465	0.00064474379	0.0002271664
0.19742757	0.033359811	0.00066030544	0.0002271664
0.1976245	0.038940184	0.00077558239	0.00022715423
0.19782144	0.037212986	0.00073602627	0.0002271664
0.19801837	0.040335461	0.00080095266	0.0002271664
0.19821531	0.044276029	0.00087981753	0.00022715998
0.19841225	0.035031848	0.00069429947	0.0002271664
0.19860919	0.042834267	0.00085243222	0.00022715423
0.19880612	0.041220769	0.0008157877	0.00022715423
0.19900306	0.034177724	0.00068095501	0.00022715423
0.19919999	0.041084964	0.00081570994	0.00022715423
0.19939692	0.040239044	0.00079847837	0.00022715423
0.19959386	0.04233871	0.0008454413	0.0002271664
0.19979079	0.045382164	0.00090097194	0.00022715423
0.19998772	0.046893787	0.00093449943	0.00022715423
0.20018466	0.039074961	0.00077617046	0.00022715998
0.20038161	0.048250906	0.00096288073	0.00022715423
0.20057854	0.038415365	0.00076342648	0.00022715423
0.20077547	0.040351577	0.0008022284	0.00022715423
0.20097241	0.034635521	0.00069059641	0.00022715423
0.20116934	0.038338657	0.00076139183	0.00022715423
0.20136628	0.045875251	0.00091576873	0.00022714208
0.20156321	0.040032025	0.00079638069	0.00022715423
0.20176014	0.039500203	0.00078787969	0.00022714208
0.20195708	0.035628501	0.00070834713	0.00022715423
0.20215401	0.040112313	0.00079902052	0.00022715998
0.20235096	0.033830043	0.00067451154	0.00022714208
0.20254789	0.036014404	0.00071620411	0.00022714208
0.20274483	0.03245436	0.00064940407	0.00022714208
0.20294176	0.034413766	0.00068425486	0.00022714208
0.20313869	0.036378335	0.00072645262	0.00022714208
0.20333563	0.044040404	0.00088045449	0.00022714208
0.20353256	0.035045799	0.00069480529	0.00022712992
0.2037295	0.037774168	0.00075689843	0.00022712992
0.20392643	0.039647575	0.00078932429	0.00022714208
0.20412336	0.038555194	0.00077225512	0.00022714782
0.20432031	0.042321645	0.00084493018	0.00022714208
0.20451725	0.043704893	0.00087004044	0.00022714208
0.20471418	0.03696182	0.00074006041	0.00022712992
0.20491111	0.049180329	0.00097868568	0.00022714208
0.20510805	0.042259242	0.00084697199	0.00022712992
0.20530498	0.048869144	0.00097695831	0.00022712992
0.20550191	0.042954635	0.00085595273	0.00022712992
0.20569885	0.038367346	0.0007702781	0.00022712992
0.20589578	0.037690457	0.00075023924	0.00022712992
0.20609272	0.045213848	0.00090784783	0.00022713565
0.20628966	0.033454251	0.00066742406	0.00022712992
0.2064866	0.039756592	0.00079623557	0.00022711777
0.20668353	0.033739839	0.00067549245	0.00022712992
0.20688047	0.031829171	0.00063464977	0.00022712992
0.2070774	0.035656404	0.00071285834	0.00022711777
0.20727433	0.037051953	0.00073922641	0.00022711777
0.20747127	0.038696539	0.00077607075	0.00022711777
0.2076682	0.033712428	0.00067476876	0.00022712992
0.20786513	0.03354891	0.0006698647	0.00022712992
0.20806207	0.032980457	0.00066038151	0.0002271235
0.20825902	0.037141703	0.00074164808	0.00022711777
0.20845595	0.033822332	0.00067777192	0.00022711777
0.20865288	0.03919192	0.00078294775	0.00022711777
0.20884982	0.037566353	0.00075440528	0.00022711777
0.20904675	0.041497152	0.00083241286	0.00022711777
0.20924369	0.037322514	0.00074733928	0.0002271056
0.20944062	0.035641961	0.00071298482	0.00022711777
0.20963755	0.03323875	0.00066424598	0.00022711777
0.20983449	0.023026315	0.00046267739	0.00022711777
0.21003142	0.032873377	0.00065767614	0.00022711133
0.21022837	0.030944625	0.00061954511	0.00022711777
0.2104253	0.037897311	0.000760158	0.00022711777
0.21062224	0.038291011	0.00076415896	0.0002271056
0.21081917	0.02843016	0.00057240122	0.0002271056
0.2110161	0.030364372	0.00060667226	0.0002271056
0.21121304	0.028501628	0.00057028129	0.0002271056
0.21140997	0.028536486	0.00057120924	0.0002271056
0.2116069	0.035130721	0.00070536515	0.0002271056
0.21180384	0.036021285	0.00072392495	0.0002271056
0.21200077	0.033535354	0.00066955725	0.00022711133
0.21219772	0.038683128	0.00078007672	0.00022709343
0.21239465	0.03697617	0.00074471557	0.0002271056
0.21259159	0.040211212	0.00080555247	0.0002271056
0.21278852	0.036326531	0.00072889513	0.0002271056
0.21298546	0.044237014	0.00088643323	0.00022709343
0.21318239	0.030940594	0.00062346237	0.00022709343
0.21337932	0.034902599	0.00069860066	0.00022709343
0.21357626	0.02901512	0.00058205787	0.0002271056
0.21377319	0.03301692	0.00066668098	0.0002271056
0.21397012	0.038665038	0.00077529723	0.00022709918
0.21416707	0.038005721	0.00076369086	0.00022709343
0.21436401	0.041581735	0.00083455368	0.00022709343
0.21456094	0.035743631	0.00071979786	0.00022709343
0.21475787	0.040229887	0.00081024208	0.00022708128
0.21495481	0.037597056	0.00075533055	0.00022709343
0.21515174	0.0360508	0.00072434032	0.00022709343
0.21534868	0.041751944	0.00083960203	0.00022708128
0.21554561	0.032523673	0.00065479154	0.00022709343
0.21574254	0.036356211	0.00072978868	0.00022708128
0.21593948	0.035802469	0.0007215761	0.00022709918
0.21613643	0.039819375	0.00080208667	0.00022708128
0.21633336	0.038950391	0.00078372093	0.00022708128
0.21653029	0.040673789	0.00081932521	0.00022708128
0.21672723	0.04243166	0.00085224118	0.00022709343
0.21692416	0.051958762	0.0010500756	0.00022708128
0.21712109	0.039835729	0.00080249453	0.00022708128
0.21731803	0.04106776	0.00082799309	0.00022708128
0.21751496	0.039934129	0.00080503675	0.00022708128
0.2177119	0.038289204	0.00076801382	0.00022708128
0.21790883	0.03282094	0.00066433061	0.00022708702
0.21810578	0.037990198	0.00076322287	0.00022708128
0.21830271	0.035123967	0.00070953259	0.00022708128
0.21849965	0.028806584	0.00057994074	0.00022706912
0.21869658	0.032324057	0.00064951077	0.00022708128
0.21889351	0.031923715	0.00064558507	0.00022706912
0.21909045	0.037279803	0.00074999931	0.00022706912
0.21928738	0.034667768	0.00069982413	0.00022706912
0.21948431	0.037541255	0.00075790402	0.00022706912
0.21968125	0.032881215	0.00066152518	0.00022706912
0.21987818	0.039207593	0.00079167535	0.00022707487
0.22007513	0.03970528	0.00079881313	0.00022706912
0.22027206	0.038573205	0.00078049587	0.00022706912
0.220469	0.03407225	0.00068600569	0.00022706912
0.22066593	0.034354303	0.00069352059	0.00022705697
0.22086287	0.033758748	0.00068030693	0.00022705697
0.2210598	0.028842192	0.00058089604	0.00022705697
0.22125673	0.035995036	0.0007268216	0.00022705697
0.22145367	0.030165289	0.00060829631	0.00022705697
0.2216506	0.040495869	0.00081829191	0.00022706912
0.22184753	0.03292181	0.0006629611	0.00022707487
0.22204448	0.031950209	0.00064638903	0.00022705697
0.22224142	0.031765677	0.00064079638	0.00022705697
0.22243835	0.039175257	0.00079078472	0.00022705697
0.22263528	0.03150912	0.00063668925	0.00022705697
0.22283222	0.034950659	0.00070349645	0.00022704482
0.22302915	0.028726062	0.00058136199	0.00022705697
0.22322609	0.028087568	0.00056612486	0.00022704482
0.22342302	0.037813399	0.00076186022	0.00022704482
0.22361995	0.02988792	0.00060435245	0.00022705697
0.22381689	0.033030555	0.00066667161	0.0002270627
0.22401384	0.036743216	0.00074609264	0.00022704482
0.22421077	0.031275719	0.00062951632	0.00022704482
0.2244077	0.035610765	0.00071997294	0.00022704482
0.22460464	0.03079484	0.00062338181	0.00022704482
0.22480157	0.035318274	0.00071141194	0.00022704482
0.2249985	0.028930817	0.00058784062	0.00022704482
0.22519544	0.032786883	0.00065868016	0.00022704482
0.22539237	0.025363825	0.00051234692	0.00022704482
0.22558931	0.031785864	0.0006445293	0.00022704482
0.22578624	0.031875767	0.0006395157	0.00022703838
0.22598319	0.03206997	0.00064947113	0.00022703265
0.22618012	0.032244731	0.00065108726	0.00022704482
0.22637706	0.030975303	0.00062875362	0.00022704482
0.22657399	0.031496063	0.00063606957	0.00022703265
0.22677092	0.030265341	0.00061120902	0.00022703265
0.22696786	0.035240464	0.00071296602	0.00022703265
0.22716479	0.037681159	0.00076223852	0.00022704482
0.22736172	0.038059391	0.00077317772	0.00022703265
0.22755866	0.032231405	0.00065046671	0.00022703265
0.22775559	0.027580444	0.00055885239	0.00022703265
0.22795253	0.029021559	0.00058498501	0.00022703838
0.22814947	0.03322259	0.00067217514	0.00022703265
0.22834641	0.026533997	0.00053468288	0.00022703265
0.22854334	0.033236396	0.00067099236	0.0002270205
0.22874027	0.025641026	0.0005204847	0.00022703265
0.22893721	0.030127941	0.00060739846	0.00022703265
0.22913414	0.026622295	0.00053802406	0.0002270205
0.22933108	0.032392025	0.00065533572	0.0002270205
0.22952801	0.030012505	0.0006080165	0.0002270205
0.22972494	0.034985423	0.000709466	0.0002270205
0.22992188	0.026533997	0.00053548231	0.00022703838
0.23011883	0.030431107	0.00062102644	0.0002270205
0.23031576	0.033856317	0.00068284647	0.0002270205
0.23051269	0.032043278	0.00064888265	0.0002270205
0.23070963	0.0275	0.00055640884	0.0002270205
0.23090656	0.024046434	0.00048489694	0.00022700834
0.23110349	0.0272651	0.00055408193	0.00022700834
0.23130043	0.02711723	0.00054918317	0.0002270205
0.23149736	0.023710482	0.00047822131	0.0002270205
0.2316943	0.031328321	0.0006353347	0.0002270205
0.23189123	0.031963471	0.00064623816	0.00022701408
0.23208818	0.028918693	0.00058709487	0.00022700834
0.23228511	0.031223981	0.00063227699	0.00022700834
0.23248205	0.037191808	0.00075538608	0.00022700834
0.23267898	0.037285294	0.00075852743	0.00022700834
0.23287591	0.035328347	0.00071553467	0.00022700834
0.23307285	0.03554998	0.00072177273	0.00022700834
0.23326978	0.037114263	0.00075321714	0.00022700834
0.23346671	0.038397327	0.00077948481	0.00022700834
0.23366365	0.030698065	0.00062484236	0.00022700834
0.23386058	0.031302169	0.00063465384	0.00022701408
0.23405753	0.025598679	0.0005155009	0.00022699618
0.23425446	0.029028187	0.0005904329	0.00022700834
0.2344514	0.03145973	0.00063933694	0.00022699618
0.23464833	0.034684498	0.0007040631	0.00022699618
0.23484527	0.030518394	0.00061865547	0.00022700834
0.2350422	0.028010033	0.00056789338	0.00022700834
0.23523913	0.037799243	0.0007695299	0.00022699618
0.23543607	0.033305578	0.00067512348	0.00022699618
0.235633	0.035117056	0.00071347441	0.00022699618
0.23582993	0.02974445	0.00060390081	0.00022700192
0.23602688	0.034105264	0.00069520884	0.00022698403
0.23622382	0.02334306	0.00047164402	0.00022699618
0.23642075	0.028380634	0.0005743769	0.00022699618
0.23661768	0.025565801	0.00051847979	0.00022698403
0.23681462	0.028198654	0.00057390006	0.00022698403
0.23701155	0.02966987	0.00060199463	0.00022699618
0.23720849	0.029657478	0.00060088979	0.00022698403
0.23740542	0.028127624	0.0005716033	0.00022699618
0.23760235	0.033123691	0.00067365455	0.00022698403
0.23779929	0.021419572	0.00043456207	0.00022698977
0.23799624	0.027128547	0.00054926233	0.00022698403
0.23819317	0.027322404	0.00055529492	0.00022698403
0.2383901	0.035684299	0.00072586781	0.00022698403
0.23858704	0.034771681	0.00070692791	0.00022698403
0.23878397	0.03939648	0.00080203253	0.00022698403
0.2389809	0.028104028	0.0005706253	0.00022697187
0.23917784	0.035729297	0.00072816043	0.00022697187
0.23937477	0.040438078	0.00082442729	0.00022698403
0.23957171	0.033919599	0.00068900589	0.00022697187
0.23976864	0.031276062	0.0006336309	0.00022697762
0.23996559	0.031578947	0.00064285879	0.00022697187
0.24016252	0.02749577	0.00056031893	0.00022697187
0.24035946	0.03067746	0.00062809134	0.00022697187
0.24055639	0.025359256	0.00051680394	0.00022697187
0.24075332	0.034497444	0.00070723641	0.00022697187
0.24095026	0.033891033	0.00069731515	0.00022697187
0.24114719	0.039574467	0.00081137114	0.00022697187
0.24134412	0.032119915	0.00065933145	0.00022697187
0.24154106	0.028904228	0.00059544231	0.00022697187
0.24173799	0.024600778	0.0005062063	0.00022696547
0.24193494	0.031684026	0.00065456581	0.00022697187
0.24213187	0.024956971	0.00051239051	0.00022695972
0.24232881	0.027109751	0.00056196819	0.00022697187
0.24252574	0.022737211	0.00047042529	0.00022695972
0.24272268	0.027074236	0.0005604183	0.00022695972
0.24291961	0.022457067	0.000466153	0.00022695972
0.24311654	0.02610966	0.00053991529	0.00022695972
0.24331348	0.030208796	0.00063118525	0.00022695972
0.24351041	0.028218694	0.00058787328	0.00022695972
0.24370734	0.030369718	0.00063197344	0.00022696547
0.24390429	0.028914591	0.00060468726	0.00022695972
0.24410123	0.027728086	0.00058099884	0.00022695972
0.24429816	0.030639432	0.00064041215	0.00022694757
0.24449509	0.021927821	0.00046305094	0.00022694757
0.24469203	0.02764977	0.00058772578	0.00022695972
0.24488896	0.030459231	0.00065394823	0.00022694757
0.2450859	0.028208744	0.00060581253	0.00022694757
0.24528283	0.026502604	0.00057077396	0.00022694757
0.24547976	0.027658559	0.00059854175	0.00022694757
0.2456767	0.030317614	0.0006594297	0.0002269533
0.24587364	0.027417028	0.0005957745	0.00022694757
0.24607058	0.027683342	0.00060447748	0.0002269354
0.24626751	0.021802325	0.00047417011	0.00022694757
0.24646445	0.024618415	0.00054002629	0.00022694757
0.24666138	0.032432433	0.00071282347	0.00022694757
0.24685831	0.026640356	0.00058533065	0.0002269354
0.24705525	0.022851465	0.00050314952	0.0002269354
0.24725218	0.024962556	0.00055116537	0.0002269354
0.24744911	0.018099548	0.00040026012	0.00022694757
0.24764605	0.033983007	0.00075361261	0.00022694115
0.247843	0.028700907	0.00063771557	0.0002269354
0.24803993	0.029652352	0.00066281384	0.0002269354
0.24823686	0.028190671	0.00063171034	0.0002269354
0.2484338	0.024439918	0.0005451169	0.00022692325
0.24863073	0.022633744	0.00050707051	0.0002269354
0.24882767	0.021604938	0.00048342152	0.00022692325
0.2490246	0.025866529	0.0005809025	0.00022692325
0.24922153	0.025600836	0.0005788281	0.00022692325
0.24941847	0.020238712	0.00045459782	0.00022692325
0.2496154	0.020558776	0.00046511108	0.000226929
0.24981235	0.022703273	0.00051456422	0.00022692965
0.25000927	0.026631854	0.00060203095	0.00022692325
0.2502062	0.025599999	0.00058439327	0.0002269354
0.25040314	0.024894068	0.00056641898	0.0002269111
0.25060007	0.023796646	0.0005463651	0.0002269226
0.25079703	0.019764958	0.00044970633	0.0002269111
0.25099397	0.031703386	0.00072842225	0.0002269111
0.2511909	0.026587086	0.00061234168	0.0002269111
0.25138783	0.030694669	0.0007042106	0.0002269111
0.25158477	0.023978202	0.00055175106	0.0002269111
0.2517817	0.032205239	0.00074491638	0.0002269111
0.25197864	0.032876711	0.00076054619	0.0002269111
0.25217557	0.026592799	0.00061707024	0.0002269111
0.2523725	0.029637761	0.00068565976	0.0002269111
0.25256944	0.028904947	0.00067355944	0.0002269111
0.25276637	0.024430871	0.00056745176	0.0002269111
0.2529633	0.021217197	0.00049308367	0.0002268868
0.25316024	0.02759009	0.00064649596	0.0002269111
0.25335717	0.025582718	0.00060211326	0.0002269111
0.25355411	0.02108963	0.00050185603	0.0002269111
0.25375104	0.027677497	0.00067071652	0.0002269111
0.25394797	0.031400967	0.00076268043	0.0002268868
0.25414491	0.03194103	0.0007836296	0.0002269111
0.25434184	0.019607844	0.00048422263	0.0002269111
0.25453877	0.03125	0.00078821712	0.0002269226
0.25473574	0.023505708	0.00060008402	0.0002268868
0.25493267	0.036784742	0.0009484702	0.0002269111
0.25512961	0.020862309	0.00053984823	0.0002269111
0.25532654	0.022711143	0.000595121	0.0002269111
0.25552347	0.030589949	0.00081453746	0.0002268868
0.25572041	0.032575756	0.00088548468	0.0002269111
0.25591734	0.035656404	0.001001714	0.0002269111
0.25611427	0.032674119	0.0009451501	0.0002268868
0.25631121	0.035616439	0.001060049	0.0002268868
0.25650814	0.028275212	0.00084993418	0.0002268868
0.25670508	0.030977735	0.00094815082	0.0002268868
0.25690201	0.029598309	0.00094172388	0.0002268868
0.25709894	0.030303031	0.00099250313	0.0002268868
0.25729588	0.038961038	0.0013102834	0.0002268868
0.25749281	0.022781774	0.00076151959	0.0002268868
0.25768974	0.026415095	0.00090608979	0.0002268868
0.25788668	0.041397154	0.0014605263	0.0002268868
0.25808361	0.025367156	0.00090013334	0.0002268868
0.25828055	0.03009576	0.0010859257	0.0002268868
0.25847748	0.031473532	0.0011563187	0.00022689829
0.25867444	0.021834061	0.0007976545	0.00022686248
0.25887138	0.035168197	0.0013406564	0.00022686248
0.25906831	0.032407407	0.0012374269	0.00022686248
0.25926524	0.042789225	0.0016633365	0.0002268868
0.25946218	0.026755853	0.001060272	0.00022686248
0.25965911	0.018675722	0.0007343319	0.0002268868
0.25985605	0.020797227	0.00082965952	0.0002268868
0.26005298	0.03125	0.0012664974	0.00022686248
0.26024991	0.031468533	0.0012756241	0.00022686248
0.26044685	0.019642858	0.00078490656	0.0002268868
0.26064378	0.01604278	0.0006391597	0.00022686248
0.26084071	0.01438849	0.00057131116	0.00022686248
0.26103765	0.042357273	0.0017723618	0.00022686248
0.26123458	0.033333335	0.0013907487	0.00022686248
0.26143152	0.03018868	0.001265566	0.0002268868
0.26162845	0.035120148	0.0014623933	0.00022686248
0.26182538	0.030592734	0.0012910753	0.00022686248
0.26202232	0.02739726	0.0011496095	0.00022686248
0.26221925	0.027777778	0.0011803083	0.00022686248
0.26241618	0.030592734	0.0012964886	0.00022684968
0.26261315	0.017857144	0.00075067463	0.00022683818
0.26281008	0.018292682	0.00077832391	0.00022686248
0.26300701	0.039014373	0.0017174826	0.00022686248
0.26320395	0.034205232	0.0014845151	0.00022683818
0.26340088	0.033826638	0.0015012615	0.00022686248
0.26359782	0.020920502	0.00090872857	0.00022683818
0.26379475	0.017094018	0.00073992845	0.00022686248
0.26399168	0.023504274	0.0010370318	0.00022683818
0.26418862	0.026086956	0.001156931	0.00022683818
0.26438555	0.013422819	0.00058021059	0.00022683818
0.26458248	0.025171624	0.0011494012	0.00022683818
0.26477942	0.024663677	0.0011147603	0.00022683818
0.26497635	0.020979021	0.00095606426	0.00022686248
0.26517329	0.018648019	0.0008431694	0.00022683818
0.26537022	0.026894866	0.0012579358	0.00022683818
0.26556715	0.033653848	0.0015919092	0.00022683818
0.26576409	0.034653466	0.0016634195	0.00022683818
0.26596102	0.025252525	0.0012053899	0.00022683818
0.26615795	0.020725388	0.00098804408	0.00022683818
0.26635489	0.017902814	0.00083929679	0.00022684968
0.26655185	0.026525199	0.0012977349	0.00022681388
0.26674879	0.019178081	0.00093063869	0.00022683818
0.26694572	0.027027028	0.0013347698	0.00022683818
0.26714265	0.032876711	0.0016372994	0.00022681388
0.26733959	0.031073445	0.0015769057	0.00022681388
0.26753652	0.031428572	0.0016040413	0.00022681388
0.26773345	0.042296074	0.0022436273	0.00022683818
0.26793039	0.044776119	0.0023556657	0.00022683818
0.26812732	0.041420117	0.0021742228	0.00022683818
0.26832426	0.068750001	0.0037526116	0.00022683818
0.26852119	0.03809524	0.0020583137	0.00022683818
0.26871812	0.03215434	0.001732527	0.00022683818
0.26891506	0.038585208	0.0020981946	0.00022681388
0.26911199	0.01010101	0.00047937271	0.00022683818
0.26930892	0.040268455	0.0022371365	0.00022683818
0.26950586	0.031141868	0.0017301039	0.00022683818
0.26970279	0.037800688	0.0021164322	0.00022681388
0.26989973	0.036231883	0.0020727448	0.00022681388
0.27009666	0.026217228	0.0014882386	0.00022681388
0.27029359	0.0076335878	0.00033411308	0.00022684968
0.27049056	0.010989011	0.00054403715	0.00022681388
0.27068749	0.015564202	0.00084243715	0.00022681388
0.27088442	0.020080321	0.0011404855	0.00022681388
0.27108136	0.029288704	0.0017576738	0.00022681388
0.27127829	0.012605042	0.00066853553	0.00022681388
0.27147523	0	0	0.00022681388
0.27167216	0	0	0.00022681388
0.27186909	0	0	0.00022681388
0.27206603	0.041666668	0	0.00022681388
0.27226296	0	0	0.00022681388
