#   DataFileName=PAL30_85C_WAXS_08172017.tif
#   DataFileType=.tif
#   
#   DataFilePath=E:DATA:PAL30_08262017:
#   
#   Processed on=Wed, Jan 16, 2019,2:41:49 AM
#   Units=Arbitrary
#   SampleThickness=1
#   SampleTransmission=1
#   CorrectionFactor=1
#   SampleMeasurementTime=1
#   EmptyMeasurementTime=1
#   BackgroundMeasTime=1
#   SampleI0=1
#   EmptyI0=1
#   Nika_SampleToDetectorDistacne=1552.1
#   Nika_Wavelength=1.54
#   Nika_XrayEnergy=8.0509
#   Nika_PixelSizeX=0.075
#   Nika_PixelSizeY=0.075
#   Nika_HorizontalTilt=0
#   Nika_VerticalTilt=0
#   Nika_BeamCenterX=1540.3
#   Nika_BeamCenterY=830.17
#   Nika_BeamSizeX=0
#   Nika_BeamCenterY=830.17
#   CalibrationFormula=1*((Sa2D))
#   CurrentMaskFileName=PAL30_30C_WAXS_mask.hdf
#   QvectorMaxNumPnts=1
#   QvectorNumberPoints=1383
#   CircularAverage=1
#   PolarizationCorrection=None
#   UncertainityCalculationMethod=OldNikaMethod

0.0060065244	8.5	6	0.00022756745
0.00620346	6.4000001	1.2701181	0.00022756765
0.0064003952	4.8947368	0.64496058	0.00022756765
0.0065973303	5.1500001	0.57432884	0.00022756765
0.0067942655	7.734694	0.77602637	0.00022756765
0.0069912006	10.336449	0.9798547	0.00022756745
0.0071881362	12.377049	1.0883672	0.00022756727
0.0073850714	14.007633	1.1945986	0.00022756727
0.0075820065	14.586206	1.1867286	0.00022756727
0.0077789417	13.061225	1.0575776	0.00022756745
0.0079758773	11.841772	0.92567962	0.00022756746
0.0081728119	10.92638	0.84075832	0.00022756707
0.0083697475	9.2415733	0.68150342	0.00022756671
0.0085666822	7.8704662	0.55762106	0.00022756783
0.0087636178	7.4102564	0.52237725	0.00022756783
0.0089605534	6.4644551	0.43863201	0.00022756746
0.0091574881	6.3711791	0.41585156	0.00022756707
0.0093544237	5.0879998	0.31796643	0.00022756671
0.0095513584	4.5171103	0.27554554	0.00022756707
0.009748294	4.4301472	0.26586366	0.00022756707
0.0099452296	3.8122745	0.22671065	0.00022756595
0.010142164	3.7050359	0.21988647	0.00022756707
0.0103391	3.4242425	0.19661316	0.00022756671
0.010536035	3.061017	0.1762998	0.00022756707
0.01073297	2.9144738	0.16559243	0.00022756783
0.010929906	2.6334405	0.14803235	0.00022756746
0.01112684	2.5559106	0.14310442	0.00022756783
0.011323776	2.3644578	0.12875088	0.00022756746
0.011520711	2.2713416	0.12431055	0.00022756707
0.011717646	1.9704142	0.10628722	0.00022756707
0.011914582	1.9035088	0.10207241	0.00022756746
0.012111517	1.8579711	0.099337146	0.00022756783
0.012308452	1.6483517	0.085706189	0.00022756671
0.012505387	1.59887	0.084305011	0.00022756783
0.012702323	1.4444444	0.073851943	0.00022756783
0.012899258	1.3699732	0.070438832	0.00022756671
0.013096193	1.2225131	0.062045962	0.00022756707
0.013293128	1.1662405	0.05859613	0.00022756671
0.013490063	1.2525773	0.063053101	0.00022756707
0.013686999	1.1053921	0.054362662	0.00022756707
0.013883934	1.0973237	0.053826027	0.00022756671
0.014080869	1.0047847	0.048860222	0.00022756707
0.014277805	0.90117645	0.043413773	0.00022756671
0.014474739	0.92198581	0.044564415	0.0002275663
0.014671675	0.81941307	0.038752586	0.00022756707
0.014868611	0.78636366	0.037259556	0.00022756671
0.015065545	0.84175825	0.039223362	0.0002275663
0.015262481	0.76824033	0.035425305	0.00022756671
0.015459416	0.74065936	0.034518063	0.00022756595
0.01565635	0.75906181	0.034855984	0.00022756707
0.015853286	0.61571127	0.028173475	0.00022756554
0.016050221	0.68247426	0.030803476	0.00022756707
0.016247157	0.64574897	0.028934218	0.00022756707
0.016444093	0.542	0.024131237	0.00022756483
0.016641026	0.62449801	0.027834311	0.00022756707
0.016837962	0.58717436	0.026167927	0.00022756707
0.017034898	0.47859922	0.021013374	0.00022756554
0.017231833	0.51816446	0.022566289	0.00022756554
0.017428769	0.52371919	0.0227114	0.00022756483
0.017625703	0.47850469	0.020583963	0.00022756554
0.017822638	0.45996276	0.019729299	0.00022756554
0.018019574	0.4227941	0.018046508	0.00022756554
0.018216509	0.42518249	0.018073196	0.00022756554
0.018413445	0.36851519	0.015520882	0.00022756483
0.018610379	0.38869259	0.016249726	0.00022756554
0.018807314	0.39092496	0.016273241	0.00022756554
0.01900425	0.3830156	0.015884472	0.00022756554
0.019201186	0.37237763	0.015511391	0.00022756554
0.019398121	0.34338358	0.01400903	0.00022756483
0.019595055	0.36271188	0.014877249	0.00022756554
0.019791991	0.34710744	0.014052967	0.00022756554
0.019988926	0.3322314	0.013446677	0.00022756554
0.020185862	0.30882353	0.012409613	0.00022756554
0.020382797	0.29777071	0.011829933	0.00022756483
0.020579731	0.31715211	0.012713104	0.00022756403
0.020776667	0.27115989	0.010692829	0.00022756403
0.020973602	0.25978091	0.010229437	0.00022756554
0.021170538	0.24062499	0.0094670597	0.00022756403
0.021367474	0.27450982	0.010619408	0.0002275633
0.021564407	0.28947368	0.011349836	0.00022756403
0.021761343	0.24962631	0.0096126832	0.00022756403
0.021958278	0.27300152	0.010560673	0.00022756403
0.022155214	0.27165931	0.010364408	0.00022756403
0.02235215	0.25872093	0.0098299226	0.0002275633
0.022549083	0.25110132	0.0095835784	0.00022756403
0.022746019	0.22269504	0.0083557665	0.00022756403
0.022942955	0.22525108	0.008494189	0.00022756403
0.02313989	0.18528996	0.0069370153	0.00022756403
0.023336826	0.21757323	0.0080878772	0.0002275633
0.02353376	0.18002813	0.0067149713	0.00022756403
0.023730695	0.21302578	0.0078175934	0.00022756403
0.023927631	0.20689656	0.0076536257	0.0002275625
0.024124566	0.22117962	0.0080638602	0.00022756403
0.024321502	0.2386059	0.0087031312	0.00022756179
0.024518436	0.19060403	0.0069447774	0.0002275625
0.024715371	0.19104084	0.0069056679	0.0002275625
0.024912307	0.17701453	0.0064066872	0.0002275625
0.025109243	0.19948849	0.0071082781	0.0002275625
0.025306178	0.17464425	0.0062556798	0.00022756179
0.025503112	0.17369093	0.0061808783	0.0002275625
0.025700048	0.17153749	0.0060901046	0.0002275625
0.025896983	0.15139949	0.0053767101	0.0002275625
0.026093919	0.19581281	0.0068493481	0.00022756097
0.026290854	0.16004963	0.0056136535	0.00022756179
0.026487788	0.14878049	0.0051707923	0.0002275625
0.026684724	0.1601467	0.0055784476	0.00022756097
0.026881659	0.16077954	0.0055859121	0.0002275625
0.027078595	0.15632458	0.0053766961	0.00022756097
0.027275531	0.14801444	0.0051099048	0.00022756179
0.027472464	0.13969733	0.0047472785	0.00022756097
0.0276694	0.16666667	0.0057085073	0.00022756097
0.027866336	0.17633411	0.0059854728	0.00022756097
0.028063271	0.16046512	0.0054525286	0.00022756097
0.028260207	0.17948718	0.0061026616	0.00022756026
0.028457141	0.16835018	0.0056174705	0.00022756097
0.028654076	0.15891033	0.005332212	0.00022756097
0.028851012	0.16219239	0.0054054447	0.00022756097
0.029047947	0.15453528	0.0051518958	0.00022756097
0.029244883	0.16085489	0.0053745243	0.00022756026
0.029441817	0.12636165	0.0041516884	0.00022756097
0.029638752	0.15934066	0.0052624508	0.00022755946
0.029835688	0.14778857	0.0048347195	0.00022756097
0.030032624	0.12365592	0.0040365672	0.00022755946
0.030229559	0.14177489	0.0046446356	0.00022755875
0.030426493	0.15531915	0.0050452924	0.00022755946
0.030623429	0.14696486	0.0047768536	0.00022755946
0.030820364	0.13725491	0.0043919189	0.00022755946
0.0310173	0.15352261	0.0049598562	0.00022755946
0.031214235	0.13692947	0.0043916753	0.00022755946
0.031411171	0.15092403	0.0048183212	0.00022755875
0.031608105	0.1499483	0.0048053088	0.00022755571
0.031805038	0.14560162	0.004612504	0.00022756017
0.032001976	0.16582407	0.0052572931	0.00022755875
0.03219891	0.14673367	0.0046361713	0.00022756017
0.032395847	0.13386613	0.0042157369	0.00022755875
0.032592781	0.13406157	0.0042084926	0.00022755875
0.032789715	0.13405088	0.0041776565	0.00022756017
0.032986652	0.12512316	0.0039116298	0.00022755571
0.033183586	0.14800389	0.0046039824	0.00022755713
0.033380523	0.12620424	0.0039022625	0.00022755875
0.033577457	0.11271676	0.0034821772	0.00022755571
0.033774391	0.13536702	0.0041655027	0.00022755713
0.033971328	0.11354962	0.0034934629	0.00022755571
0.034168262	0.12109745	0.0037098755	0.00022756017
0.0343652	0.11687088	0.0035735155	0.00022755571
0.034562133	0.12070566	0.0036627543	0.00022755571
0.034759067	0.11966605	0.0036300286	0.00022756017
0.034956004	0.14351852	0.0043528462	0.00022755571
0.035152938	0.12054794	0.0036297292	0.00022755713
0.035349876	0.11952554	0.0035959117	0.00022755571
0.035546809	0.11887477	0.0035680425	0.00022755571
0.035743743	0.10326087	0.0030940864	0.00022755713
0.035940681	0.1058296	0.0031550168	0.00022755571
0.036137614	0.13321492	0.0039570234	0.00022755713
0.036334552	0.10657194	0.0031620997	0.00022755266
0.036531486	0.1058201	0.0031289069	0.00022755266
0.036728419	0.10141093	0.0029971511	0.00022755713
0.036925357	0.11304348	0.003319493	0.00022755571
0.037122291	0.10860122	0.0031873751	0.00022755713
0.037319228	0.12305026	0.0036081611	0.00022755571
0.037516162	0.11535199	0.0033470376	0.00022755266
0.037713096	0.11053985	0.003223652	0.00022755713
0.037910033	0.097103916	0.0028214487	0.00022755266
0.038106967	0.11195929	0.0032479551	0.00022755409
0.038303904	0.12911393	0.0037377628	0.00022755266
0.038500838	0.12063228	0.0034673845	0.00022755266
0.038697772	0.1214876	0.0034807643	0.00022755409
0.038894709	0.10430463	0.0029893848	0.00022755266
0.039091643	0.12158809	0.0034837849	0.00022755409
0.03928858	0.12131148	0.0034610522	0.00022755266
0.039485514	0.11860276	0.0033684028	0.00022755266
0.039682448	0.095857024	0.00271903	0.00022755409
0.039879385	0.11967871	0.0033799321	0.00022755266
0.040076319	0.1056	0.0029756415	0.00022755409
0.040273257	0.10272873	0.0028984349	0.00022754962
0.04047019	0.11455847	0.0032196462	0.00022754962
0.040667124	0.10802224	0.003032729	0.00022755409
0.040864062	0.10320563	0.0028751534	0.00022755266
0.041060995	0.10419907	0.0028944514	0.00022755409
0.041257933	0.096723869	0.002690834	0.00022754962
0.041454867	0.11206226	0.003115264	0.00022755266
0.0416518	0.095719844	0.0026591581	0.00022755409
0.041848738	0.096946567	0.0026686506	0.00022754962
0.042045671	0.10950571	0.0030093878	0.00022754801
0.042242609	0.094296575	0.002589647	0.00022754657
0.042439543	0.1047836	0.0028767509	0.00022754353
0.042636476	0.10969196	0.0029966321	0.00022754801
0.042833414	0.099397592	0.0027165182	0.00022754657
0.043030348	0.083644509	0.0022759202	0.00022754801
0.043227285	0.096750371	0.0026196165	0.00022754353
0.043424219	0.11495947	0.0031109476	0.00022754353
0.043621153	0.10735294	0.0029001764	0.00022754801
0.04381809	0.086510263	0.0023324606	0.00022754353
0.044015024	0.10241404	0.0027596515	0.00022754495
0.044211961	0.088405795	0.0023694439	0.00022754353
0.044408895	0.094244607	0.0025181891	0.00022754353
0.044605829	0.08908046	0.0023780346	0.00022754495
0.044802766	0.078192249	0.0020852105	0.00022754353
0.0449997	0.084939331	0.0022602186	0.00022754495
0.045196638	0.099646643	0.0026396015	0.00022754353
0.045393571	0.095035464	0.0025214904	0.00022754353
0.045590505	0.09180098	0.0024207225	0.00022754495
0.045787442	0.10168303	0.0026831874	0.00022754048
0.045984376	0.090972222	0.002387447	0.00022754191
0.046181314	0.09299098	0.0024406814	0.00022754353
0.046378247	0.079419889	0.0020780978	0.00022754048
0.046575181	0.10428177	0.0027308704	0.00022754191
0.046772119	0.093899928	0.0024491148	0.00022754353
0.046969052	0.087134108	0.0022644445	0.00022754495
0.04716599	0.087934561	0.0022863334	0.00022754048
0.047362924	0.099056602	0.0025622894	0.00022754048
0.047559857	0.091823056	0.0023676574	0.00022754495
0.047756795	0.083948962	0.0021664337	0.00022754048
0.047953729	0.10261569	0.0026485606	0.00022754495
0.048150666	0.080291972	0.0020587251	0.00022754048
0.0483476	0.079628401	0.002041898	0.00022754048
0.048544534	0.083169617	0.0021186701	0.00022754191
0.048741471	0.10085695	0.0025800809	0.00022753744
0.048938405	0.077524431	0.0019693456	0.00022754191
0.049135342	0.093709044	0.0023884096	0.00022754048
0.049332276	0.0874919	0.0022178222	0.00022753744
0.04952921	0.087968953	0.0022272312	0.00022753887
0.049726147	0.093488075	0.0023643561	0.00022753744
0.049923081	0.089930333	0.0022532982	0.00022754191
0.050120018	0.090153456	0.002270414	0.00022753744
0.050316952	0.097248882	0.002450051	0.00022753744
0.050513886	0.10412698	0.0026135365	0.00022753887
0.050710823	0.084337346	0.0021135302	0.00022753744
0.050907757	0.086902544	0.0021548388	0.00022753887
0.051104695	0.091193005	0.0022693195	0.00022753744
0.051301628	0.094257176	0.0023445606	0.00022753744
0.051498562	0.084269665	0.0020955992	0.00022753887
0.0516955	0.094619669	0.0023440293	0.00022753744
0.051892433	0.09730722	0.0023972357	0.00022753887
0.052089371	0.082098767	0.0020287645	0.0002275344
0.052286305	0.083181545	0.0020400356	0.00022753744
0.052483238	0.097872339	0.0024035312	0.00022753583
0.052680176	0.078419454	0.0019242272	0.0002275344
0.052877109	0.068693012	0.0016849416	0.00022753887
0.053074047	0.080771551	0.0019733543	0.0002275344
0.053270981	0.086567163	0.0021059695	0.00022753744
0.053467914	0.09188544	0.0022354417	0.00022753887
0.053664852	0.090354092	0.0022234721	0.0002275344
0.053861786	0.091640867	0.0022705214	0.00022753583
0.054058723	0.088418432	0.0021967022	0.0002275344
0.054255657	0.10204082	0.0025268195	0.0002275344
0.054452591	0.093808629	0.0023354965	0.00022753583
0.054649528	0.082345605	0.0020453942	0.0002275344
0.054846462	0.07272727	0.0018110105	0.00022753583
0.055043399	0.082545683	0.0020626204	0.00022753136
0.055240333	0.087176248	0.0021809246	0.0002275344
0.055437267	0.076874606	0.0019200558	0.00022753583
0.055634204	0.071964957	0.0017876244	0.00022753136
0.055831138	0.094996832	0.0023806598	0.00022753279
0.056028076	0.091881685	0.0022952973	0.00022753136
0.056225009	0.090391912	0.0022626943	0.00022753136
0.056421943	0.072750479	0.0018270481	0.00022753279
0.05661888	0.069138907	0.0017238396	0.00022753136
0.056815814	0.082338154	0.0020542403	0.00022753279
0.057012752	0.088607594	0.0022186944	0.00022753136
0.057209685	0.085227273	0.0021322551	0.00022752832
0.057406619	0.10669192	0.0026700557	0.00022753279
0.057603557	0.090966523	0.0022756753	0.00022753136
0.05780049	0.086708859	0.0021718922	0.00022753279
0.057997428	0.091080405	0.0022721728	0.00022752832
0.058194362	0.080808081	0.0020207055	0.00022752832
0.058391295	0.088439673	0.0022127309	0.00022752974
0.058588233	0.098997496	0.0024677671	0.00022752832
0.058785167	0.10443038	0.0026169871	0.00022752974
0.058982104	0.087366439	0.0021798201	0.00022752832
0.059179038	0.07223618	0.0018006366	0.00022752832
0.059375972	0.072372563	0.0018058775	0.00022752974
0.059572909	0.0839599	0.0020911328	0.00022752528
0.059769843	0.090107121	0.0022513401	0.00022752974
0.05996678	0.065675341	0.0016248878	0.00022752528
0.060163714	0.074354127	0.0018561465	0.00022752528
0.060360648	0.072942644	0.0018115151	0.00022752974
0.060557585	0.082654975	0.0020578895	0.00022752528
0.060754519	0.075917862	0.0018843161	0.0002275267
0.060951456	0.087390758	0.0021734748	0.00022752528
0.06114839	0.08089608	0.002007121	0.00022752528
0.061345324	0.079701118	0.0019784635	0.0002275267
0.061542261	0.088819876	0.0022027157	0.00022752528
0.061739195	0.081467658	0.0020206715	0.0002275267
0.061936133	0.067575946	0.001672369	0.00022752528
0.062133066	0.065594062	0.001621433	0.00022752528
0.06233	0.080615386	0.0019893909	0.00022752528
0.062526934	0.074165635	0.0018337071	0.0002275251
0.062723875	0.089330025	0.002214099	0.00022751919
0.062920809	0.07090012	0.0017502324	0.00022752528
0.063117743	0.076875389	0.0019047298	0.00022751919
0.063314676	0.067931458	0.0016708437	0.00022751919
0.06351161	0.065363467	0.001606452	0.00022752814
0.063708551	0.08583691	0.0021152082	0.00022751919
0.063905485	0.074783683	0.0018492293	0.00022751919
0.064102419	0.067682929	0.001661408	0.00022751919
0.064299352	0.084507041	0.0020812894	0.00022752528
0.064496286	0.088468581	0.0021762711	0.00022752205
0.064693227	0.061968409	0.0015184457	0.00022751919
0.064890161	0.087272726	0.0021389762	0.00022751919
0.065087095	0.072693951	0.0017877622	0.00022752528
0.065284029	0.07880269	0.0019388235	0.00022752528
0.065480962	0.06779661	0.0016585256	0.00022752205
0.065677904	0.067388691	0.0016439743	0.00022752528
0.065874837	0.079854809	0.0019544114	0.00022751919
0.066071771	0.069837451	0.0017050244	0.00022751919
0.066268705	0.06650544	0.0016265458	0.00022751919
0.066465639	0.074653827	0.0018234664	0.00022752205
0.06666258	0.074850298	0.0018227046	0.00022751919
0.066859514	0.070866145	0.0017355958	0.00022751919
0.067056447	0.070749111	0.0017159957	0.00022751919
0.067253381	0.060968321	0.0014826935	0.00022751919
0.067450315	0.074118353	0.0018035234	0.00022751596
0.067647256	0.078443117	0.0019107469	0.00022751919
0.06784419	0.076139092	0.0018555019	0.00022751919
0.068041123	0.071597636	0.0017336145	0.00022751311
0.068238057	0.074096031	0.0017951014	0.00022751311
0.068434991	0.07486631	0.001816936	0.00022752205
0.068631932	0.079787232	0.0019306086	0.00022751311
0.068828866	0.06818182	0.001658157	0.00022751311
0.0690258	0.07305669	0.0017575709	0.00022751311
0.069222733	0.083825268	0.0020284508	0.00022751311
0.069419667	0.067375883	0.001629599	0.00022751596
0.069616608	0.066236809	0.0015956191	0.00022751311
0.069813542	0.071051084	0.0017134433	0.00022751311
0.070010476	0.071260303	0.0017204246	0.00022751311
0.07020741	0.073242761	0.0017724677	0.00022751311
0.070404343	0.071057193	0.0016997216	0.00022752205
0.070601285	0.064214826	0.001543482	0.00022751311
0.070798218	0.061592098	0.001476501	0.00022751311
0.070995152	0.066862173	0.001610868	0.00022751311
0.071192086	0.063631058	0.0015293598	0.00022751311
0.071389019	0.071921751	0.0017172105	0.00022751596
0.071585961	0.070185617	0.0016819936	0.00022750701
0.071782894	0.083815031	0.0020065163	0.00022751311
0.071979828	0.083575159	0.0020047573	0.00022751311
0.072176762	0.070317	0.0016796483	0.00022751311
0.072373696	0.069340974	0.0016518306	0.00022751596
0.072570637	0.070144929	0.0016811107	0.00022751311
0.072767571	0.062535532	0.0014834462	0.00022750701
0.072964504	0.065972224	0.0015784391	0.00022750701
0.073161438	0.070982397	0.001683781	0.00022751311
0.073358372	0.061784897	0.0014700759	0.00022750988
0.073555313	0.068548389	0.0016365398	0.00022750701
0.073752247	0.066139065	0.0015642577	0.00022751311
0.073949181	0.071347035	0.0016969937	0.00022750701
0.074146114	0.081494056	0.0019307067	0.00022751311
0.074343048	0.073588133	0.0017492448	0.00022750988
0.074539989	0.062464509	0.0014811667	0.00022750701
0.074736923	0.060368922	0.001420313	0.00022750701
0.074933857	0.07797382	0.0018523475	0.00022750701
0.07513079	0.070945948	0.0016759729	0.00022750701
0.075327724	0.081644148	0.0019294234	0.0002275038
0.075524665	0.068732396	0.0016238433	0.00022750701
0.075721599	0.07126949	0.0016738388	0.00022750093
0.075918533	0.067004502	0.001582231	0.00022750701
0.076115467	0.067151651	0.0015813388	0.00022750701
0.0763124	0.073143497	0.0017208913	0.00022750988
0.076509342	0.076751947	0.0018026618	0.00022750701
0.076706275	0.073292613	0.0017199719	0.00022750701
0.076903209	0.074551567	0.0017571001	0.00022750701
0.077100143	0.062258951	0.0014543813	0.00022750093
0.077297077	0.072616406	0.0017022197	0.0002275038
0.077494018	0.071190208	0.0016718701	0.00022750093
0.077690952	0.062122043	0.0014494711	0.00022750093
0.077887885	0.078551531	0.0018467654	0.00022750093
0.078084819	0.068627454	0.0015943762	0.00022750093
0.078281753	0.06274078	0.0014647893	0.0002275038
0.078478694	0.067694001	0.0015807822	0.00022750093
0.078675628	0.06444566	0.0014989037	0.00022750093
0.078872561	0.058434401	0.001365017	0.00022750093
0.079069495	0.055585831	0.0012904622	0.00022750093
0.079266429	0.059465356	0.0013812834	0.0002275038
0.07946337	0.05834242	0.0013547711	0.00022750093
0.079660304	0.053542454	0.0012377981	0.00022750093
0.079857238	0.069907151	0.0016259663	0.00022750093
0.080054171	0.053001624	0.0012252025	0.00022750093
0.080251105	0.079564035	0.0018497541	0.0002275038
0.080448046	0.090566039	0.0020954306	0.00022749485
0.08064498	0.080299787	0.0018509644	0.00022750093
0.080841914	0.061788619	0.0014311201	0.00022750093
0.081038848	0.06437768	0.0014845635	0.00022749485
0.081235781	0.066017315	0.0015287722	0.00022749772
0.081432723	0.062433299	0.0014353679	0.00022749485
0.081629656	0.060266666	0.001384901	0.00022749485
0.08182659	0.065345474	0.0015052864	0.00022749485
0.082023524	0.067056946	0.0015396574	0.00022749485
0.082220457	0.074826293	0.0017228276	0.00022749772
0.082417399	0.065066665	0.0014956612	0.00022749485
0.082614332	0.064395957	0.0014789019	0.00022749485
0.082811266	0.056293149	0.0012905507	0.00022749485
0.0830082	0.077368423	0.0017682994	0.00022749485
0.083205134	0.06818182	0.0015607863	0.00022749163
0.083402075	0.061806656	0.0014132865	0.00022749485
0.083599009	0.068121344	0.0015643401	0.00022749485
0.083795942	0.075550891	0.0017237862	0.00022748877
0.083992876	0.077003665	0.001755807	0.00022749485
0.08418981	0.064921468	0.0014783286	0.00022749772
0.084386751	0.062271062	0.0014184478	0.00022748877
0.084583685	0.074228957	0.0016904902	0.00022749485
0.084780619	0.065590836	0.0014900004	0.00022749485
0.084977552	0.066805847	0.0015197061	0.00022748877
0.085174486	0.065667011	0.0014865818	0.00022749163
0.085371427	0.052522101	0.0011913697	0.00022748877
0.085568361	0.068965517	0.0015582495	0.00022748877
0.085765295	0.065329216	0.0014752165	0.00022748877
0.085962228	0.057872783	0.0013149627	0.00022748877
0.086159162	0.064881563	0.0014658934	0.00022748555
0.086356103	0.058103975	0.0013051153	0.00022748877
0.086553037	0.057494868	0.0012962356	0.00022748877
0.086749971	0.066023365	0.0014810427	0.00022748877
0.086946905	0.057098765	0.0012887719	0.00022748268
0.087143838	0.057273187	0.0012830945	0.00022749163
0.08734078	0.066292711	0.0014908286	0.00022748877
0.087537713	0.0633232	0.0014192502	0.00022748268
0.087734647	0.067273647	0.0015066612	0.00022748877
0.087931581	0.06300813	0.001414377	0.00022748877
0.088128515	0.066298343	0.0014797851	0.00022748555
0.088325456	0.055387713	0.001236378	0.00022748268
0.08852239	0.044050634	0.00098522601	0.00022748268
0.088719323	0.062905639	0.0013994307	0.00022748268
0.088916257	0.053106211	0.0011821863	0.00022748268
0.089113191	0.056443557	0.0012555104	0.00022748555
0.089310132	0.066933066	0.0014899482	0.00022748268
0.089507066	0.06822709	0.0015165583	0.00022748268
0.089703999	0.057043649	0.0012639859	0.00022748268
0.089900933	0.068000004	0.0015141487	0.00022748268
0.090097867	0.054599114	0.0012046669	0.00022747947
0.090294808	0.060817547	0.0013516387	0.00022748268
0.090491742	0.06956093	0.0015387563	0.00022748268
0.090688676	0.072170042	0.0015983285	0.00022748268
0.090885609	0.059723593	0.0013203293	0.0002274766
0.091082543	0.063515507	0.0014025399	0.00022748268
0.091279477	0.058534186	0.0012915756	0.00022748555
0.091476418	0.059517954	0.0013137866	0.0002274766
0.091673352	0.068847656	0.0015148383	0.00022748268
0.091870286	0.06185567	0.0013644475	0.0002274766
0.092067219	0.062193926	0.0013702	0.0002274766
0.092264153	0.06329114	0.0013903838	0.00022747947
0.092461094	0.062439024	0.0013722936	0.0002274766
0.092658028	0.075305626	0.0016593997	0.0002274766
0.092854962	0.065795839	0.001441353	0.0002274766
0.093051895	0.052199129	0.001141047	0.0002274766
0.093248829	0.055366684	0.001214158	0.00022747337
0.09344577	0.063315615	0.0013860067	0.0002274766
0.093642704	0.053935859	0.0011824882	0.00022747052
0.093839638	0.067020252	0.0014652372	0.0002274766
0.094036572	0.053391054	0.0011651875	0.0002274766
0.094233505	0.05973025	0.0013045806	0.00022747947
0.094430447	0.053160921	0.0011578508	0.00022747052
0.09462738	0.057487924	0.0012571858	0.00022747052
0.094824314	0.05786705	0.0012593226	0.00022747052
0.095021248	0.054571565	0.0011878161	0.00022747052
0.095218182	0.055687767	0.0012090213	0.00022747337
0.095415123	0.055422839	0.0012057776	0.00022747052
0.095612057	0.059552167	0.0012937729	0.00022747052
0.09580899	0.058963384	0.00128029	0.00022747052
0.096005924	0.056937799	0.0012394458	0.00022747052
0.096202858	0.05832148	0.0012639911	0.00022747337
0.096399799	0.06004728	0.0013002721	0.00022747052
0.096596733	0.054092191	0.0011675983	0.00022746444
0.096793666	0.062854439	0.0013610332	0.00022747052
0.0969906	0.056710776	0.0012268671	0.00022746444
0.097187534	0.05325165	0.0011507877	0.00022747337
0.097384475	0.048653755	0.0010522428	0.00022746444
0.097581409	0.055451129	0.0011962785	0.00022747052
0.097778343	0.060958587	0.0013094022	0.00022746444
0.097975276	0.05882353	0.0012705078	0.00022746444
0.09817221	0.057369404	0.0012335733	0.00022746729
0.098369151	0.065535128	0.0014170933	0.00022746444
0.098566085	0.052802224	0.001130862	0.00022746444
0.098763019	0.066978924	0.0014437635	0.00022746444
0.098959953	0.047641072	0.0010189745	0.00022746444
0.099156886	0.049884528	0.0010669136	0.00022746121
0.099353828	0.044817928	0.00096279988	0.00022746444
0.099550761	0.062267657	0.001336216	0.00022745834
0.099747695	0.053019825	0.001132958	0.00022745834
0.099944629	0.057354301	0.0012278303	0.00022745834
0.10014156	0.053793103	0.0011481768	0.00022746121
0.1003385	0.051222891	0.0010950163	0.00022745834
0.10053544	0.0646789	0.0013797559	0.00022746444
0.10073237	0.050650559	0.0010864362	0.00022745834
0.1009293	0.043538038	0.00092662167	0.00022746444
0.10112624	0.056818184	0.0012058521	0.00022746121
0.10132318	0.057904411	0.0012359573	0.00022746444
0.10152011	0.059972741	0.0012731812	0.00022745834
0.10171705	0.053040694	0.0011288688	0.00022745834
0.10191398	0.060619872	0.0012887235	0.00022745834
0.10211091	0.054362722	0.0011562258	0.00022746121
0.10230786	0.059117779	0.00125551	0.00022745834
0.10250479	0.050632913	0.0010713006	0.00022745226
0.10270172	0.053153154	0.0011227615	0.00022745226
0.10289866	0.050113894	0.0010643067	0.00022745226
0.10309559	0.060920577	0.0012886956	0.00022745512
0.10329253	0.066183135	0.0014037971	0.00022745226
0.10348947	0.076681614	0.001618094	0.00022745834
0.1036864	0.086486489	0.0018299506	0.00022745226
0.10388333	0.095558546	0.0020182831	0.00022745226
0.10408027	0.10841206	0.0022941928	0.00022746121
0.10427721	0.10493273	0.0022165978	0.00022745226
0.10447414	0.10183939	0.002151646	0.00022745226
0.10467108	0.10026738	0.0021117793	0.00022745226
0.10486801	0.10192221	0.0021496126	0.00022745226
0.10506494	0.099778272	0.0020958025	0.00022745512
0.10526188	0.11269487	0.0023730181	0.00022745226
0.10545882	0.099373318	0.0020971645	0.00022744617
0.10565575	0.090385467	0.001897233	0.00022745226
0.10585269	0.091474243	0.0019227861	0.00022745226
0.10604962	0.094081275	0.0019715682	0.00022745512
0.10624656	0.089823008	0.001884233	0.00022744617
0.10644349	0.089143865	0.0018673835	0.00022744617
0.10664043	0.079260238	0.0016578147	0.00022745226
0.10683736	0.075187966	0.0015761086	0.00022744617
0.1070343	0.067341551	0.001407571	0.00022744904
0.10723124	0.066899866	0.0013937437	0.00022744617
0.10742817	0.055947136	0.0011692292	0.00022744617
0.1076251	0.064642079	0.0013413918	0.00022744617
0.10782204	0.058021978	0.0012116302	0.00022744617
0.10801897	0.069086142	0.0014398474	0.00022744904
0.10821591	0.07396061	0.0015421225	0.00022744617
0.10841285	0.063208371	0.0013143017	0.00022744617
0.10860978	0.06490697	0.0013452995	0.00022744009
0.10880671	0.061896399	0.0012918683	0.00022744009
0.10900365	0.065170482	0.0013489299	0.00022744904
0.10920059	0.066147856	0.0013702473	0.00022744009
0.10939752	0.073752709	0.0015310822	0.00022744009
0.10959446	0.078185745	0.0016201038	0.00022744009
0.10979139	0.07515204	0.0015614181	0.00022744009
0.10998832	0.081868835	0.0016899544	0.00022744296
0.11018527	0.075032339	0.0015530835	0.00022744009
0.1103822	0.059887979	0.0012382299	0.00022744009
0.11057913	0.078540772	0.0016224228	0.00022743401
0.11077607	0.083476767	0.0017266723	0.00022744009
0.110973	0.088160135	0.0018145567	0.00022743687
0.11116994	0.089781955	0.0018518323	0.00022743401
0.11136688	0.092933618	0.0019188279	0.00022743401
0.11156381	0.089749046	0.0018462386	0.00022743401
0.11176074	0.099572651	0.002053706	0.00022743401
0.11195768	0.097116202	0.0019950871	0.00022744296
0.11215462	0.11244121	0.0023203986	0.00022743401
0.11235155	0.10441426	0.0021462743	0.00022743401
0.11254849	0.12410299	0.0025448662	0.00022743401
0.11274542	0.13844199	0.0028440459	0.00022743401
0.11294235	0.15103945	0.0031062316	0.00022743687
0.11313929	0.17858654	0.0036689311	0.00022743401
0.11333623	0.2509442	0.0051358966	0.00022743401
0.11353316	0.36363637	0.0074718273	0.00022742792
0.1137301	0.60000002	0.012292671	0.00022743401
0.11392703	1.0702928	0.02188457	0.00022743079
0.11412397	1.9260814	0.039461281	0.00022742792
0.1143209	3.308533	0.067815855	0.00022742792
0.11451784	5.6207619	0.11497261	0.00022742792
0.11471477	8.6210661	0.17657195	0.00022742792
0.11491171	12.21251	0.24852249	0.00022743079
0.11510865	16.44783	0.33597189	0.00022742792
0.11530558	20.262281	0.41337758	0.00022742792
0.11550251	23.262651	0.47568804	0.00022742792
0.11569945	25.414007	0.51731712	0.00022742792
0.11589638	26.110882	0.53107202	0.00022743079
0.11609332	26.022324	0.52905893	0.00022742792
0.11629026	24.748758	0.50348389	0.00022742792
0.11648719	22.56883	0.45885453	0.00022742184
0.11668412	20.612717	0.41882312	0.00022742184
0.11688106	18.622618	0.37900713	0.00022742471
0.117078	16.536184	0.33528641	0.00022742184
0.11727493	14.871879	0.30084923	0.00022742184
0.11747187	12.603356	0.25494444	0.00022742184
0.1176688	10.733908	0.21729411	0.00022742184
0.11786573	9.197607	0.18675748	0.00022742471
0.11806267	7.4042468	0.14956842	0.00022742184
0.11825961	5.7922983	0.11719272	0.00022742184
0.11845654	4.1987023	0.084516227	0.00022742184
0.11865348	2.8978429	0.05843794	0.00022742184
0.11885041	1.8639902	0.037711836	0.00022741863
0.11904735	1.2850202	0.025845433	0.00022741576
0.11924428	0.83685923	0.016872158	0.00022741576
0.11944122	0.62580907	0.012581391	0.00022741576
0.11963815	0.5	0.010071709	0.00022741576
0.11983509	0.4351145	0.0087168412	0.00022741863
0.12003203	0.38529888	0.0077390186	0.00022741576
0.12022896	0.36570498	0.0073669949	0.00022741576
0.12042589	0.30850202	0.0062029311	0.00022741576
0.12062283	0.28136271	0.0056280713	0.00022741576
0.12081976	0.27637383	0.0055305022	0.00022741863
0.1210167	0.25080001	0.0050115832	0.00022741576
0.12121364	0.24676898	0.0049548126	0.00022740968
0.12141057	0.20838323	0.0041588289	0.00022740968
0.1216075	0.21299639	0.004261286	0.00022741576
0.12180444	0.19307324	0.0038476293	0.00022741254
0.12200138	0.17935432	0.0035762107	0.00022740968
0.12219831	0.16733226	0.0033397491	0.00022741576
0.12239525	0.15485148	0.0030769531	0.00022741576
0.12259218	0.14023173	0.0027986963	0.00022740968
0.12278911	0.1384799	0.0027583169	0.00022741254
0.12298606	0.1477363	0.002939662	0.00022740968
0.12318299	0.15162311	0.0030126267	0.00022740968
0.12337992	0.12632404	0.0024979319	0.00022740968
0.12357686	0.1289171	0.0025631373	0.00022740968
0.12377379	0.13433425	0.0026657369	0.00022740646
0.12397073	0.11804185	0.0023409459	0.00022740968
0.12416767	0.12097408	0.00239334	0.00022740359
0.1243646	0.11716301	0.0023151343	0.00022740359
0.12456153	0.11553628	0.0022899958	0.00022740359
0.12475847	0.10697492	0.0021132384	0.00022740646
0.12495541	0.093663909	0.0018537061	0.00022739463
0.12515233	0.09695074	0.001912693	0.00022740323
0.12534928	0.093810819	0.0018467254	0.00022739751
0.12554622	0.11028549	0.002176855	0.00022739751
0.12574315	0.11037699	0.0021718838	0.00022739751
0.12594008	0.10082063	0.0019888943	0.00022739751
0.12613702	0.10415857	0.0020493409	0.00022740968
0.12633395	0.11072125	0.0021815377	0.00022740968
0.12653089	0.10069714	0.0019774507	0.00022739751
0.12672782	0.096986093	0.0019021449	0.00022739751
0.12692475	0.10552959	0.0020781101	0.00022739751
0.12712169	0.091117918	0.0017786621	0.00022740323
0.12731864	0.084758945	0.0016673114	0.00022739751
0.12751557	0.089649864	0.0017544922	0.00022739751
0.1277125	0.083461538	0.0016329355	0.00022739751
0.12790944	0.09578988	0.0018785306	0.00022739751
0.12810637	0.0922722	0.0018050142	0.00022739751
0.1283033	0.091605976	0.0017891771	0.00022739751
0.12850024	0.078574166	0.0015340727	0.00022739751
0.12869717	0.082600385	0.0016111793	0.00022738535
0.12889411	0.076450251	0.0014944727	0.00022739751
0.12909104	0.081780143	0.0015909366	0.00022740323
0.12928799	0.072469324	0.0014145351	0.00022739751
0.12948492	0.082985982	0.0016112209	0.00022739751
0.12968186	0.090943828	0.0017737553	0.00022738535
0.12987879	0.079588726	0.001549086	0.00022738535
0.13007572	0.078320093	0.0015192919	0.00022738535
0.13027266	0.067732118	0.0013173147	0.00022738535
0.13046959	0.088813305	0.0017168093	0.00022738535
0.13066652	0.10428517	0.002021292	0.00022738535
0.13086346	0.093761817	0.0018160588	0.00022739751
0.13106039	0.084771194	0.0016351412	0.00022740323
0.13125734	0.071482889	0.0013901913	0.00022738535
0.13145427	0.074004509	0.0014302291	0.00022738535
0.13165121	0.07984934	0.0015457137	0.00022738535
0.13184814	0.073810413	0.0014249379	0.00022738535
0.13204508	0.066391595	0.001282061	0.00022738535
0.13224201	0.070619337	0.0013683822	0.00022738535
0.13243894	0.073243648	0.0014120854	0.00022738535
0.13263588	0.062965721	0.0012117509	0.00022738535
0.13283281	0.068062827	0.0013124085	0.00022738535
0.13302974	0.07297904	0.0014079022	0.00022739106
0.13322669	0.067537315	0.0013005917	0.00022738535
0.13342363	0.074499629	0.0014301869	0.00022738535
0.13362056	0.085035279	0.0016347256	0.00022738535
0.13381749	0.067461796	0.0012986501	0.00022737318
0.13401443	0.071428575	0.0013739594	0.00022737318
0.13421136	0.068645641	0.0013184344	0.00022738535
0.1344083	0.073323511	0.0014036149	0.00022737318
0.13460523	0.065779746	0.001260603	0.00022737318
0.13480216	0.071375467	0.0013723149	0.00022737318
0.1349991	0.068888888	0.00132179	0.0002273789
0.13519605	0.064574972	0.0012295592	0.00022737318
0.13539298	0.067752682	0.0012997087	0.00022737318
0.13558991	0.069230773	0.0013212917	0.00022737318
0.13578685	0.064314589	0.0012291629	0.00022737318
0.13598378	0.065543756	0.0012503031	0.00022737318
0.13618071	0.065169364	0.001246697	0.00022737318
0.13637765	0.075430244	0.0014395012	0.00022737318
0.13657458	0.072341979	0.0013790049	0.00022737318
0.13677152	0.06377551	0.0012136995	0.00022737318
0.13696845	0.070494182	0.0013397707	0.00022737318
0.13716538	0.073749542	0.0014054492	0.0002273789
0.13736233	0.069154777	0.0013189678	0.00022737318
0.13755926	0.080202311	0.0015206345	0.00022737318
0.1377562	0.065549888	0.0012471804	0.00022737318
0.13795313	0.063134976	0.0011989839	0.00022736102
0.13815007	0.070422538	0.0013346361	0.00022736102
0.138347	0.06816534	0.0012942746	0.00022737318
0.13854393	0.062949643	0.0011903541	0.00022737318
0.13874087	0.060727272	0.0011541779	0.00022736102
0.1389378	0.06101083	0.0011556713	0.00022736102
0.13913473	0.066642784	0.0012579964	0.00022736673
0.13933168	0.055355858	0.0010457039	0.00022737318
0.13952862	0.06032316	0.0011394577	0.00022737318
0.13972555	0.061409883	0.0011668651	0.00022736102
0.13992248	0.068781182	0.00129472	0.00022736102
0.14011942	0.06633202	0.0012523737	0.00022736102
0.14031635	0.067238912	0.0012681202	0.00022737318
0.14051329	0.057081699	0.0010743907	0.00022736102
0.14071022	0.059562255	0.0011246715	0.00022736102
0.14090715	0.054216869	0.001016959	0.00022736102
0.14110409	0.058907531	0.001109459	0.00022736673
0.14130104	0.056826305	0.0010704254	0.00022736102
0.14149797	0.058114812	0.0010902997	0.00022736102
0.1416949	0.056402981	0.0010586961	0.00022734885
0.14189184	0.05017668	0.00093972101	0.00022736102
0.14208877	0.055357143	0.0010426082	0.00022736102
0.1422857	0.051754698	0.00097065733	0.00022736102
0.14248264	0.042471044	0.0007921026	0.00022736102
0.14267957	0.064539008	0.0012112909	0.00022736102
0.14287651	0.059753954	0.0011165903	0.00022736102
0.14307344	0.070771411	0.0013274221	0.00022735457
0.14327039	0.057273366	0.001070107	0.00022736102
0.14346732	0.056298383	0.0010524318	0.00022734885
0.14366426	0.064233065	0.0011998924	0.00022734885
0.14386119	0.061776061	0.0011540223	0.00022736102
0.14405812	0.057793345	0.0010780081	0.00022734885
0.14425506	0.054412279	0.0010126624	0.00022734885
0.14445199	0.057523675	0.0010736241	0.00022734885
0.14464892	0.068094067	0.0012721638	0.00022734885
0.14484586	0.053527981	0.00099454459	0.00022734885
0.14504279	0.063807532	0.0011878086	0.00022735457
0.14523974	0.065998621	0.0012233568	0.00022734885
0.14543667	0.05787443	0.0010785182	0.00022733668
0.14563361	0.059354391	0.0011002586	0.00022734885
0.14583054	0.063260339	0.0011751463	0.00022734885
0.14602748	0.065029405	0.001205333	0.00022734885
0.14622441	0.059190031	0.0010977337	0.00022733668
0.14642134	0.048721492	0.00090215408	0.00022734885
0.14661828	0.062672175	0.0011591109	0.00022733668
0.14681521	0.054766033	0.0010158265	0.00022733668
0.14701214	0.058640912	0.001085799	0.0002273424
0.14720909	0.0527041	0.00097481528	0.00022733668
0.14740603	0.055498105	0.0010270493	0.00022733668
0.14760296	0.053133514	0.00097729184	0.00022733668
0.14779989	0.059249051	0.0010962359	0.00022733668
0.14799683	0.046159144	0.00085331983	0.00022733668
0.14819376	0.051167581	0.00094483048	0.00022733668
0.1483907	0.04108182	0.00075697276	0.00022733668
0.14858763	0.053778082	0.00098893908	0.00022733668
0.14878456	0.057712127	0.0010661231	0.00022733668
0.1489815	0.058644067	0.0010764203	0.0002273424
0.14917845	0.055195913	0.0010155058	0.00022733668
0.14937538	0.059004094	0.001086276	0.00022733668
0.14957231	0.062648155	0.0011495291	0.00022733668
0.14976925	0.064726025	0.0011944033	0.00022733668
0.14996618	0.055274688	0.0010113118	0.00022733668
0.15016311	0.055254236	0.0010137062	0.00022732452
0.15036005	0.055763345	0.0010249071	0.00022732452
0.15055698	0.055592991	0.0010171775	0.00022733668
0.15075392	0.061522774	0.0011308335	0.00022733668
0.15095085	0.062730625	0.0011435857	0.00022733024
0.1511478	0.062984169	0.0011517218	0.00022732452
0.15134473	0.060872506	0.001115149	0.00022733668
0.15154167	0.055015095	0.0010044206	0.00022732452
0.1517386	0.057809331	0.0010596543	0.00022732452
0.15193553	0.052243803	0.00095276657	0.00022732452
0.15213247	0.055462185	0.0010131018	0.00022733668
0.1523294	0.048273548	0.00088054646	0.00022732452
0.15252633	0.044985004	0.00081799109	0.00022732452
0.15272327	0.061893608	0.001128855	0.00022732452
0.1529202	0.062395729	0.0011365662	0.00022733024
0.15311715	0.050637156	0.00092400186	0.00022732452
0.15331408	0.052176803	0.00094815664	0.00022732452
0.15351102	0.048869681	0.00088770333	0.00022732452
0.15370795	0.042928454	0.00077991548	0.00022731235
0.15390489	0.066555738	0.0012106479	0.00022732452
0.15410182	0.057889514	0.0010492869	0.00022732452
0.15429875	0.046511628	0.00084470393	0.00022732452
0.15449569	0.048472777	0.00088000653	0.00022731235
0.15469262	0.054268695	0.00098404707	0.00022731235
0.15488955	0.054677207	0.00098920893	0.00022731809
0.1550865	0.045125164	0.00081580319	0.00022732452
0.15528344	0.048376407	0.00087742478	0.00022731235
0.15548037	0.049685325	0.00090095308	0.00022731235
0.1556773	0.055081967	0.00099417765	0.00022731235
0.15587424	0.047116969	0.0008521105	0.00022731235
0.15607117	0.049608354	0.00089278125	0.00022731235
0.1562681	0.044510387	0.00080530107	0.00022731235
0.15646504	0.044021025	0.000794716	0.00022732452
0.15666197	0.048724655	0.0008777738	0.00022731235
0.15685891	0.049362537	0.00088905555	0.00022731809
0.15705585	0.05122349	0.00092179771	0.00022731235
0.15725279	0.053372625	0.00096232694	0.00022731235
0.15744972	0.0526658	0.00094637147	0.00022731235
0.15764666	0.041341145	0.00074241328	0.00022731235
0.15784359	0.05180328	0.00093454879	0.00022731235
0.15804052	0.057392996	0.0010301269	0.00022731235
0.15823746	0.055392638	0.00099652016	0.00022731235
0.15843439	0.055698648	0.00099597475	0.00022731235
0.15863132	0.050259404	0.00090167904	0.00022730019
0.15882826	0.052117262	0.00093716109	0.00022731809
0.15902521	0.048157725	0.00086237944	0.00022730019
0.15922214	0.06413994	0.0011508216	0.00022730019
0.15941907	0.048107762	0.00085834315	0.00022731235
0.15961601	0.051796697	0.00092860003	0.00022730019
0.15981294	0.053444944	0.00095528999	0.00022730019
0.16000988	0.045717966	0.00081682811	0.00022730019
0.16020681	0.05410628	0.00096753146	0.00022730019
0.16040374	0.046489261	0.00082880765	0.00022730019
0.16060068	0.048678271	0.00087067008	0.00022730019
0.16079761	0.053269539	0.00094793882	0.00022730592
0.16099456	0.054545455	0.00097078161	0.00022730019
0.16119149	0.055680722	0.00099549384	0.00022730019
0.16138843	0.049888071	0.00088868174	0.00022730019
0.16158536	0.05286767	0.00094284321	0.00022730019
0.16178229	0.050524309	0.00089708931	0.00022728802
0.16197923	0.042437781	0.00075459277	0.00022728802
0.16217616	0.060076289	0.0010675145	0.00022728802
0.1623731	0.046163641	0.00082027179	0.00022728802
0.16257003	0.052681688	0.00093506806	0.00022728802
0.16276696	0.051461246	0.00091356045	0.00022730592
0.16296391	0.056861501	0.0010099474	0.00022728802
0.16316085	0.057260361	0.0010151122	0.00022730019
0.16335778	0.042708002	0.00075608492	0.00022728802
0.16355471	0.047904193	0.00084713323	0.00022728802
0.16375165	0.042930923	0.00076800445	0.00022728802
0.16394858	0.050359711	0.0009073246	0.00022728802
0.16414551	0.055174664	0.00099361665	0.00022728802
0.16434245	0.053866491	0.00097582705	0.00022728802
0.16453938	0.047207449	0.0008571599	0.00022728802
0.16473632	0.053123955	0.00096748787	0.00022729376
0.16493326	0.048180591	0.0008806517	0.00022728802
0.1651302	0.045957733	0.00083803665	0.00022727586
0.16532713	0.050615594	0.00093234819	0.00022728802
0.16552407	0.055517942	0.0010176526	0.00022727586
0.165721	0.050847456	0.00093245803	0.00022728802
0.16591793	0.067971162	0.00125518	0.00022727586
0.16611487	0.044566337	0.00082128833	0.00022727586
0.1663118	0.041319445	0.00076601404	0.00022728802
0.16650873	0.048126504	0.00088862359	0.00022728802
0.16670567	0.046848089	0.00086568884	0.00022728159
0.16690262	0.052796111	0.00098029803	0.00022727586
0.16709955	0.049460117	0.00091947697	0.00022727586
0.16729648	0.050210673	0.00093703851	0.00022727586
0.16749342	0.054317549	0.0010098098	0.00022727586
0.16769035	0.047918852	0.00089239655	0.00022727586
0.16788729	0.063206218	0.0011837117	0.00022727586
0.16808422	0.050417244	0.00093600573	0.00022727586
0.16828115	0.051009566	0.00095604843	0.00022727586
0.16847809	0.053038284	0.00099002325	0.00022726369
0.16867502	0.049426936	0.0009313515	0.00022728159
0.16887197	0.046470381	0.00087123102	0.00022727586
0.1690689	0.055084746	0.0010312819	0.00022726369
0.16926584	0.057213929	0.0010748004	0.00022727586
0.16946277	0.048433047	0.00090999546	0.00022727586
0.1696597	0.058971591	0.0011145859	0.00022726369
0.16985664	0.054506592	0.0010249019	0.00022726369
0.17005357	0.044658806	0.00084051001	0.00022727586
0.17025051	0.045274884	0.00085431366	0.00022726369
0.17044744	0.053065617	0.0010008177	0.00022726369
0.17064437	0.052252252	0.00098800159	0.00022726943
0.17084132	0.056875449	0.0010752586	0.00022727586
0.17103826	0.059380691	0.0011293294	0.00022726369
0.17123519	0.056822296	0.0010771812	0.00022726369
0.17143212	0.055455528	0.0010486633	0.00022726369
0.17162906	0.054650743	0.0010358841	0.00022726369
0.17182599	0.044749189	0.0008461455	0.00022726369
0.17202292	0.054860089	0.0010483712	0.00022726369
0.17221986	0.043920144	0.00083258894	0.00022726369
0.17241679	0.044841416	0.00085239578	0.00022726369
0.17261373	0.048122495	0.00091513927	0.00022725726
0.17281067	0.049508553	0.00094027264	0.00022726369
0.17300761	0.056493029	0.0010775456	0.00022726369
0.17320454	0.048833821	0.00092777878	0.00022725153
0.17340147	0.037296899	0.00071272766	0.00022725153
0.17359841	0.042757094	0.00081681722	0.00022725153
0.17379534	0.048843186	0.0009319642	0.00022726369
0.17399228	0.041070774	0.00078222703	0.00022726369
0.17418921	0.045821115	0.00087308837	0.00022725153
0.17438614	0.048753258	0.00093644101	0.00022725153
0.17458308	0.04719764	0.00090203737	0.00022725726
0.17478003	0.042206589	0.00080806774	0.00022725153
0.17497696	0.040665433	0.00077755528	0.00022725153
0.17517389	0.044452608	0.00084812829	0.00022725153
0.17537083	0.0430873	0.00082990486	0.00022723936
0.17556776	0.050590843	0.00096792192	0.00022723936
0.17576469	0.046199702	0.0008877397	0.00022723936
0.17596163	0.048206277	0.0009269726	0.00022725153
0.17615856	0.062708721	0.0012038293	0.00022725153
0.1763555	0.048008934	0.00092156534	0.00022725153
0.17655243	0.054565702	0.0010468729	0.00022724509
0.17674938	0.047708489	0.00092086033	0.00022723936
0.17694631	0.037495311	0.00072203326	0.00022723936
0.17714325	0.040029928	0.0007701632	0.00022725153
0.17734018	0.045812994	0.00088381616	0.00022723936
0.17753711	0.048716996	0.0009354513	0.00022723936
0.17773405	0.039068371	0.00075321819	0.00022723936
0.17793098	0.051320754	0.00099270011	0.00022723936
0.17812791	0.050656661	0.00097705412	0.00022723936
0.17832485	0.039112449	0.00075442292	0.00022723936
0.17852178	0.043281898	0.00083534268	0.00022724509
0.17871873	0.04794262	0.00092747412	0.00022723936
0.17891566	0.049661398	0.00095933629	0.00022723936
0.1791126	0.046467699	0.00089913106	0.00022722721
0.17930953	0.046055116	0.0008907119	0.00022723936
0.17950647	0.03904473	0.00075627898	0.00022723936
0.1797034	0.049905483	0.00096608273	0.00022723936
0.17990033	0.051301397	0.0009921384	0.00022723936
0.18009727	0.050570343	0.0009817261	0.00022722721
0.1802942	0.051874291	0.0010053165	0.00022722721
0.18049113	0.048985839	0.00095390796	0.00022723294
0.18068808	0.045850702	0.00088815211	0.00022722721
0.18088502	0.051534671	0.00099880504	0.00022722721
0.18108195	0.049923781	0.00096968672	0.00022722721
0.18127888	0.051691372	0.0010032004	0.00022722721
0.18147582	0.043893129	0.00085264602	0.00022722721
0.18167275	0.036418818	0.00070507074	0.00022722721
0.18186969	0.043295018	0.00084279303	0.00022722721
0.18206662	0.044861965	0.00087390316	0.00022722721
0.18226355	0.049205147	0.00095281546	0.00022721505
0.18246049	0.05331799	0.0010398695	0.00022723294
0.18265744	0.051928218	0.00101049	0.00022721505
0.18285437	0.039969254	0.00077942404	0.00022722721
0.1830513	0.040400155	0.00078854471	0.00022722721
0.18324824	0.041142859	0.00079876021	0.00022721505
0.18344517	0.051883169	0.0010123649	0.00022721505
0.1836421	0.03911043	0.00076170597	0.00022721505
0.18383904	0.036923077	0.0007199251	0.00022721505
0.18403597	0.050345886	0.00098264823	0.00022721505
0.18423291	0.044247787	0.00086386024	0.00022721505
0.18442984	0.042619139	0.00083419529	0.00022722078
0.18462679	0.042944785	0.00083617598	0.00022721505
0.18482372	0.047435403	0.00092718174	0.00022721505
0.18502066	0.038431976	0.00074903312	0.00022721505
0.18521759	0.039056458	0.00076338247	0.00022721505
0.18541452	0.049186677	0.00096339022	0.00022721505
0.18561146	0.04704975	0.00091966306	0.00022721505
0.18580839	0.050115652	0.00097944611	0.00022721505
0.18600532	0.043747582	0.00085624715	0.00022720288
0.18620226	0.04346139	0.000851586	0.00022721505
0.18639919	0.057707205	0.0011310955	0.00022722078
0.18659614	0.047674417	0.0009341992	0.00022720288
0.18679307	0.042511702	0.00083529035	0.00022720288
0.18699001	0.041747198	0.00081663847	0.00022720288
0.18718694	0.037728511	0.00073997921	0.00022720288
0.18738388	0.043778803	0.00085337728	0.00022720288
0.18758081	0.040408004	0.00079578173	0.00022721505
0.18777774	0.036533229	0.00071594905	0.00022720288
0.18797468	0.044392522	0.00087145501	0.00022720288
0.18817161	0.048713952	0.00095725805	0.00022719071
0.18836854	0.041795667	0.00081799034	0.00022720861
0.18856549	0.048780486	0.00096297509	0.00022719071
0.18876243	0.047878552	0.00093976717	0.00022720288
0.18895936	0.040935673	0.00080353988	0.00022720288
0.18915629	0.04181321	0.00082176784	0.00022719071
0.18935323	0.040609136	0.00079791987	0.00022719071
0.18955016	0.049823459	0.00098222296	0.00022720288
0.1897471	0.041974351	0.00082302815	0.00022719071
0.18994403	0.043035995	0.00084674865	0.00022720288
0.19014096	0.042930286	0.00084765919	0.00022719071
0.1903379	0.040482678	0.00079360063	0.00022719646
0.19053484	0.040567152	0.00080064102	0.00022719071
0.19073178	0.043613706	0.00085641234	0.00022719071
0.19092871	0.044846576	0.00088444795	0.00022719071
0.19112565	0.050197627	0.00099349639	0.00022719071
0.19132258	0.052611068	0.001034205	0.00022719071
0.19151951	0.052776683	0.0010428654	0.00022719071
0.19171645	0.039670072	0.0007816006	0.00022719071
0.19191338	0.04647499	0.00091826508	0.00022717856
0.19211031	0.042745098	0.00084210787	0.00022719071
0.19230725	0.043580685	0.0008594523	0.00022719646
0.1925042	0.044065107	0.00087360892	0.00022719071
0.19270113	0.045633361	0.00090055243	0.00022719071
0.19289806	0.038597874	0.0007613551	0.00022719071
0.193095	0.043086566	0.00084845431	0.00022717856
0.19329193	0.040889241	0.00081035087	0.00022719071
0.19348887	0.041139241	0.00081359671	0.00022717856
0.1936858	0.046401888	0.00091563415	0.00022717856
0.19388273	0.042620365	0.00084217713	0.00022717856
0.19407967	0.043512657	0.00086071331	0.00022717856
0.1942766	0.049023516	0.00097387785	0.0002271843
0.19447355	0.051643193	0.001017397	0.00022717856
0.19467048	0.043995243	0.0008711745	0.00022717856
0.19486742	0.047468353	0.0009397461	0.0002271664
0.19506435	0.05125149	0.001017119	0.0002271664
0.19526128	0.039090548	0.00077622611	0.0002271664
0.19545822	0.046220135	0.00091032498	0.0002271664
0.19565515	0.040849019	0.00081322191	0.0002271664
0.19585209	0.034126986	0.00067571842	0.0002271664
0.19604902	0.03958828	0.00078309496	0.0002271664
0.19624595	0.04262948	0.00084654993	0.00022717213
0.1964429	0.050433412	0.00099669187	0.00022717856
0.19663984	0.048477564	0.00096537132	0.0002271664
0.19683677	0.039905176	0.00078887295	0.0002271664
0.1970337	0.037140574	0.00073758711	0.0002271664
0.19723064	0.043305524	0.0008590176	0.0002271664
0.19742757	0.048451152	0.00096080115	0.0002271664
0.1976245	0.044560418	0.00088816328	0.00022715423
0.19782144	0.049089469	0.00097201247	0.0002271664
0.19801837	0.039137378	0.0007776217	0.0002271664
0.19821531	0.038292781	0.00075969117	0.00022715998
0.19841225	0.035429936	0.00070243288	0.0002271664
0.19860919	0.048038431	0.00095605699	0.00022715423
0.19880612	0.037653588	0.00074532197	0.00022715423
0.19900306	0.040611178	0.00080966228	0.00022715423
0.19919999	0.053051457	0.0010543223	0.00022715423
0.19939692	0.044223107	0.00087802426	0.00022715423
0.19959386	0.042741936	0.00085339439	0.0002271664
0.19979079	0.043391719	0.00086136418	0.00022715423
0.19998772	0.048496995	0.00096635177	0.00022715423
0.20018466	0.056220096	0.0011182186	0.00022715998
0.20038161	0.047848813	0.00095474132	0.00022715423
0.20057854	0.051620647	0.0010280672	0.00022715423
0.20077547	0.04834199	0.00096125749	0.00022715423
0.20097241	0.035843737	0.00071495929	0.00022715423
0.20116934	0.038338657	0.00076164288	0.00022715423
0.20136628	0.038229376	0.00076222891	0.00022714208
0.20156321	0.044835869	0.00089266634	0.00022715423
0.20176014	0.044740025	0.00089361251	0.00022714208
0.20195708	0.040832665	0.00081225956	0.00022715423
0.20215401	0.045728039	0.00091150543	0.00022715998
0.20235096	0.038662907	0.00077149639	0.00022714208
0.20254789	0.039615847	0.00078772608	0.00022714208
0.20274483	0.045841783	0.00091839611	0.00022714208
0.20294176	0.033213284	0.00066003081	0.00022714208
0.20313869	0.041632984	0.00083224609	0.00022714208
0.20333563	0.034343433	0.00068572164	0.00022714208
0.20353256	0.042214256	0.00083786383	0.00022712992
0.2037295	0.037367992	0.00074861635	0.00022712992
0.20392643	0.046856228	0.00093248131	0.00022714208
0.20412336	0.041396104	0.00082840578	0.00022714782
0.20432031	0.035469569	0.00070670614	0.00022714208
0.20451725	0.038893346	0.0007735999	0.00022714208
0.20471418	0.040617384	0.00081383175	0.00022712992
0.20491111	0.039984006	0.00079510891	0.00022714208
0.20510805	0.031694435	0.00063417153	0.00022712992
0.20530498	0.03634895	0.00072575407	0.00022712992
0.20550191	0.04696909	0.00093626772	0.00022712992
0.20569885	0.047346938	0.00095182925	0.00022712992
0.20589578	0.045709703	0.00091010722	0.00022712992
0.20609272	0.046843179	0.00093983003	0.00022713565
0.20628966	0.055219669	0.0011022902	0.00022712992
0.2064866	0.043002028	0.0008611969	0.00022711777
0.20668353	0.039430894	0.00079029088	0.00022712992
0.20688047	0.044721998	0.00089307246	0.00022712992
0.2070774	0.044975691	0.00090060948	0.00022711777
0.20727433	0.042690296	0.00085223146	0.00022711777
0.20747127	0.043584522	0.00087469706	0.00022711777
0.2076682	0.038992688	0.00078104646	0.00022712992
0.20786513	0.043654002	0.0008727762	0.00022712992
0.20806207	0.039087947	0.00078365224	0.0002271235
0.20825902	0.043197416	0.00086314458	0.00022711777
0.20845595	0.043194786	0.0008669165	0.00022711777
0.20865288	0.042828284	0.00085590495	0.00022711777
0.20884982	0.05022458	0.0010094186	0.00022711777
0.20904675	0.043531325	0.00087263295	0.00022711777
0.20924369	0.045030426	0.00090173591	0.0002271056
0.20944062	0.031996761	0.00063904573	0.00022711777
0.20963755	0.042561814	0.00085197727	0.00022711777
0.20983449	0.034539472	0.00069494243	0.00022711777
0.21003142	0.042613637	0.00085329881	0.00022711133
0.21022837	0.053338762	0.0010713831	0.00022711777
0.2104253	0.04767726	0.00095724221	0.00022711777
0.21062224	0.047964532	0.0009584123	0.0002271056
0.21081917	0.043263286	0.00087344978	0.0002271056
0.2110161	0.043319836	0.00086735282	0.0002271056
0.21121304	0.043973941	0.00088216027	0.0002271056
0.21140997	0.040766407	0.00081881211	0.0002271056
0.2116069	0.044526145	0.00089536764	0.0002271056
0.21180384	0.040933277	0.00082392874	0.0002271056
0.21200077	0.047272727	0.00094557193	0.00022711133
0.21219772	0.044444446	0.00089674705	0.00022709343
0.21239465	0.039852094	0.00080272998	0.0002271056
0.21259159	0.042648252	0.00085457432	0.0002271056
0.21278852	0.044081632	0.00088578742	0.0002271056
0.21298546	0.044237014	0.00088650867	0.00022709343
0.21318239	0.046204619	0.00093355856	0.00022709343
0.21337932	0.04383117	0.00087801926	0.00022709343
0.21357626	0.048222315	0.00096990878	0.0002271056
0.21377319	0.037144035	0.00074979337	0.0002271056
0.21397012	0.03947904	0.00079173892	0.00022709918
0.21416707	0.044544339	0.0008959166	0.00022709343
0.21436401	0.041581735	0.0008352031	0.00022709343
0.21456094	0.04847987	0.0009780454	0.00022709343
0.21475787	0.05500821	0.0011099607	0.00022708128
0.21495481	0.035962403	0.00072233944	0.00022709343
0.21515174	0.034412127	0.00069179834	0.00022709343
0.21534868	0.033974621	0.00068255648	0.00022708128
0.21554561	0.041169204	0.00083064317	0.00022709343
0.21574254	0.033496734	0.00067260384	0.00022708128
0.21593948	0.034979425	0.00070495898	0.00022709918
0.21613643	0.042692941	0.0008598846	0.00022708128
0.21633336	0.041820418	0.00084216002	0.00022708128
0.21653029	0.038208708	0.00076972804	0.00022708128
0.21672723	0.039575685	0.00079481932	0.00022709343
0.21692416	0.043711342	0.00088299281	0.00022708128
0.21712109	0.040657084	0.00081907428	0.00022708128
0.21731803	0.037782341	0.00076028402	0.00022708128
0.21751496	0.03211198	0.00064653053	0.00022708128
0.2177119	0.037881874	0.00075907027	0.00022708128
0.21790883	0.038221855	0.00077442476	0.00022708702
0.21810578	0.038807191	0.00077992713	0.00022708128
0.21830271	0.033884298	0.00068451872	0.00022708128
0.21849965	0.035802469	0.00072196248	0.00022706912
0.21869658	0.045008183	0.0009060778	0.00022708128
0.21889351	0.041044775	0.00083116256	0.00022706912
0.21909045	0.044244163	0.0008908459	0.00022706912
0.21928738	0.038382173	0.00077515782	0.00022706912
0.21948431	0.039191417	0.00079127419	0.00022706912
0.21968125	0.046444718	0.00093672512	0.00022706912
0.21987818	0.039620306	0.00079980615	0.00022707487
0.22007513	0.041342612	0.0008318848	0.00022706912
0.22027206	0.038158439	0.00077231321	0.00022706912
0.220469	0.040640395	0.00081899256	0.00022706912
0.22066593	0.036837749	0.00074500451	0.00022705697
0.22086287	0.039934129	0.00080538355	0.00022705697
0.2210598	0.038318913	0.00077315152	0.00022705697
0.22125673	0.037649978	0.00076092011	0.00022705697
0.22145367	0.035123967	0.00070913456	0.00022705697
0.2216506	0.036776859	0.00074306293	0.00022706912
0.22184753	0.041563787	0.00083807122	0.00022707487
0.22204448	0.046058092	0.00093278429	0.00022705697
0.22224142	0.038778879	0.00078270613	0.00022705697
0.22243835	0.042886596	0.00086598581	0.00022705697
0.22263528	0.046019901	0.00093208317	0.00022705697
0.22283222	0.033305921	0.00067049358	0.00022704482
0.22302915	0.034554537	0.00070010923	0.00022705697
0.22322609	0.038000826	0.00076753245	0.00022704482
0.22342302	0.039868474	0.00080391654	0.00022704482
0.22361995	0.038190119	0.00077290513	0.00022705697
0.22381689	0.038810901	0.00078394543	0.0002270627
0.22401384	0.036743216	0.0007461902	0.00022704482
0.22421077	0.046090536	0.00093032746	0.00022704482
0.2244077	0.038923394	0.00078708614	0.00022704482
0.22460464	0.049521431	0.0010055315	0.00022704482
0.22480157	0.044353183	0.0008940635	0.00022704482
0.2249985	0.04528302	0.00092224957	0.00022704482
0.22519544	0.04262295	0.00085825229	0.00022704482
0.22539237	0.035343036	0.0007158806	0.00022704482
0.22558931	0.032622334	0.00066244876	0.00022704482
0.22578624	0.045361668	0.00091237901	0.00022703838
0.22598319	0.041649312	0.00084521767	0.00022703265
0.22618012	0.03141794	0.0006340387	0.00022704482
0.22637706	0.035998326	0.00073155935	0.00022704482
0.22657399	0.038955659	0.00078851671	0.00022703265
0.22677092	0.035655059	0.00072131678	0.00022703265
0.22696786	0.033582091	0.00067927141	0.00022703265
0.22716479	0.045548655	0.00092221855	0.00022704482
0.22736172	0.044751149	0.0009106184	0.00022703265
0.22755866	0.044628099	0.00090231188	0.00022703265
0.22775559	0.040534895	0.00082407147	0.00022703265
0.22795253	0.046434496	0.00094053498	0.00022703838
0.22814947	0.034468438	0.00069780194	0.00022703265
0.22834641	0.043117743	0.00087324233	0.00022703265
0.22854334	0.036560033	0.00074061629	0.0002270205
0.22874027	0.0395124	0.000805391	0.00022703265
0.22893721	0.042096574	0.00085059926	0.00022703265
0.22913414	0.036605656	0.0007421003	0.0002270205
0.22933108	0.034468438	0.00069739105	0.0002270205
0.22952801	0.030012505	0.00060765888	0.0002270205
0.22972494	0.038733862	0.00078592962	0.0002270205
0.22992188	0.044361524	0.00089859159	0.00022703838
0.23011883	0.037616231	0.00076864992	0.0002270205
0.23031576	0.034269199	0.00069125043	0.0002270205
0.23051269	0.044527672	0.00090276723	0.0002270205
0.23070963	0.034166668	0.00069257192	0.0002270205
0.23090656	0.034825869	0.00070380769	0.00022700834
0.23110349	0.037332214	0.00075986265	0.00022700834
0.23130043	0.046307884	0.00094084727	0.0002270205
0.23149736	0.04201331	0.00085195946	0.0002270205
0.2316943	0.038847119	0.00078910257	0.0002270205
0.23189123	0.039850559	0.00080741005	0.00022701408
0.23208818	0.033109806	0.0006731216	0.00022700834
0.23228511	0.041215654	0.00083635916	0.00022700834
0.23248205	0.040117007	0.00081525382	0.00022700834
0.23267898	0.047758695	0.00097252114	0.00022700834
0.23287591	0.044472154	0.00090195553	0.00022700834
0.23307285	0.048933502	0.00099591713	0.00022700834
0.23326978	0.046288572	0.00094041304	0.00022700834
0.23346671	0.03881469	0.00078839139	0.00022700834
0.23366365	0.046257358	0.00094351335	0.00022700834
0.23386058	0.047996663	0.0009751349	0.00022701408
0.23405753	0.039223783	0.00079207687	0.00022699618
0.23425446	0.026924696	0.00054749049	0.00022700834
0.2344514	0.039848994	0.0008113659	0.00022699618
0.23464833	0.033430841	0.00067893625	0.00022699618
0.23484527	0.03846154	0.00078153465	0.00022700834
0.2350422	0.025501672	0.0005166714	0.00022700834
0.23523913	0.033179335	0.00067513355	0.00022699618
0.23543607	0.028726062	0.00058148615	0.00022699618
0.235633	0.040969901	0.00083244051	0.00022699618
0.23582993	0.028068706	0.00056967884	0.00022700192
0.23602688	0.038315788	0.0007805269	0.00022698403
0.23622382	0.03793247	0.00076987786	0.00022699618
0.23642075	0.030467445	0.00061734236	0.00022699618
0.23661768	0.027661357	0.00056131382	0.00022698403
0.23681462	0.034511786	0.00070309336	0.00022698403
0.23701155	0.036356039	0.00073857594	0.00022699618
0.23720849	0.03508772	0.00071176136	0.00022698403
0.23740542	0.03190596	0.00064875686	0.00022699618
0.23760235	0.024737945	0.00050190027	0.00022698403
0.23779929	0.02645947	0.00053735537	0.00022698977
0.23799624	0.030884808	0.000626116	0.00022698403
0.23819317	0.03320723	0.00067587529	0.00022698403
0.2383901	0.034424853	0.00069948641	0.00022698403
0.23858704	0.0490155	0.0009970211	0.00022698403
0.23878397	0.032690696	0.00066353421	0.00022698403
0.2389809	0.041107383	0.00083654647	0.00022697187
0.23917784	0.04119378	0.0008396281	0.00022697187
0.23937477	0.04380792	0.00089429563	0.00022698403
0.23957171	0.048576213	0.00098914281	0.00022697187
0.23976864	0.034195162	0.00069375249	0.00022697762
0.23996559	0.037473686	0.00076428428	0.00022697187
0.24016252	0.039340101	0.00080436148	0.00022697187
0.24035946	0.032807838	0.00067247788	0.00022697187
0.24055639	0.037193574	0.00075995317	0.00022697187
0.24075332	0.029386712	0.00060127821	0.00022697187
0.24095026	0.032604031	0.00067075633	0.00022697187
0.24114719	0.034042552	0.00069699524	0.00022697187
0.24134412	0.039828695	0.00081910723	0.00022697187
0.24154106	0.030198447	0.0006219662	0.00022697187
0.24173799	0.029348295	0.00060493732	0.00022696547
0.24193494	0.030815972	0.00063708727	0.00022697187
0.24213187	0.031841651	0.00065580581	0.00022695972
0.24232881	0.031045036	0.00064446463	0.00022697187
0.24252574	0.030170528	0.00062576524	0.00022695972
0.24272268	0.033624455	0.00069774501	0.00022695972
0.24291961	0.036988109	0.0007713681	0.00022695972
0.24311654	0.037423845	0.00077544741	0.00022695972
0.24331348	0.03420702	0.00071534648	0.00022695972
0.24351041	0.028659612	0.00059670524	0.00022695972
0.24370734	0.033010565	0.00068670011	0.00022696547
0.24390429	0.036032028	0.00075483893	0.00022695972
0.24410123	0.031305902	0.00065649691	0.00022695972
0.24429816	0.032415632	0.00067814649	0.00022694757
0.24449509	0.029237095	0.00061937206	0.00022694757
0.24469203	0.030875577	0.0006575443	0.00022695972
0.24488896	0.0262418	0.00056291709	0.00022694757
0.2450859	0.038551953	0.0008306232	0.00022694757
0.24528283	0.031708471	0.00068402389	0.00022694757
0.24547976	0.033381019	0.00072330178	0.00022694757
0.2456767	0.025024062	0.00054295885	0.0002269533
0.24587364	0.030784031	0.00066934759	0.00022694757
0.24607058	0.033997085	0.00074295793	0.0002269354
0.24626751	0.028100776	0.00061258452	0.00022694757
0.24646445	0.03495815	0.00076963159	0.00022694757
0.24666138	0.034398034	0.00075535657	0.00022694757
0.24685831	0.036507152	0.00080452644	0.0002269354
0.24705525	0.036761053	0.00081202964	0.0002269354
0.24725218	0.03944084	0.00087474869	0.0002269354
0.24744911	0.035696331	0.00079366099	0.00022694757
0.24764605	0.029485257	0.00065312581	0.00022694115
0.247843	0.030715005	0.00068297668	0.0002269354
0.24803993	0.033742331	0.00075644901	0.0002269354
0.24823686	0.033316247	0.0007480983	0.0002269354
0.2484338	0.03258656	0.00072936196	0.00022692325
0.24863073	0.03755144	0.00084459805	0.0002269354
0.24882767	0.03755144	0.00084475928	0.00022692325
0.2490246	0.026901189	0.00060542382	0.00022692325
0.24922153	0.028735632	0.00065011939	0.00022692325
0.24941847	0.030098598	0.00067865953	0.00022692325
0.2496154	0.024248814	0.00055000716	0.000226929
0.24981235	0.02903907	0.0006608917	0.00022692965
0.25000927	0.027154047	0.00061398133	0.00022692325
0.2502062	0.036266666	0.00083067024	0.0002269354
0.25040314	0.028601695	0.00065161515	0.0002269111
0.25060007	0.028664142	0.00065950857	0.0002269226
0.25079703	0.02991453	0.00068426831	0.0002269111
0.25099397	0.034390114	0.00078977266	0.0002269111
0.2511909	0.033640802	0.00077665976	0.0002269111
0.25138783	0.035002694	0.00080523593	0.0002269111
0.25158477	0.031607628	0.00073011988	0.0002269111
0.2517817	0.036026202	0.00083337899	0.0002269111
0.25197864	0.036164384	0.00083974889	0.0002269111
0.25217557	0.034903046	0.00081416796	0.0002269111
0.2523725	0.030735455	0.00071240065	0.0002269111
0.25256944	0.031128405	0.00072729116	0.0002269111
0.25276637	0.041088283	0.00096046872	0.0002269111
0.2529633	0.033500839	0.00078319985	0.0002268868
0.25316024	0.031531531	0.00074122666	0.0002269111
0.25335717	0.030699261	0.00072410156	0.0002269111
0.25355411	0.036321033	0.00087178207	0.0002269111
0.25375104	0.041516244	0.0010101825	0.0002269111
0.25394797	0.037439615	0.00091164658	0.0002268868
0.25414491	0.032555282	0.00079828908	0.0002269111
0.25434184	0.035420619	0.00088167551	0.0002269111
0.25453877	0.030598959	0.00077157648	0.0002269226
0.25473574	0.032907993	0.00084363163	0.0002268868
0.25493267	0.034059945	0.00087888428	0.0002269111
0.25512961	0.037552156	0.00097934378	0.0002269111
0.25532654	0.041163947	0.001086208	0.0002269111
0.25552347	0.043699928	0.0011695836	0.0002268868
0.25572041	0.025	0.00067785318	0.0002269111
0.25591734	0.048622366	0.0013707795	0.0002269111
0.25611427	0.020636285	0.00059155968	0.0002268868
0.25631121	0.02739726	0.00081064529	0.0002268868
0.25650814	0.030160226	0.00090993458	0.0002268868
0.25670508	0.038722169	0.0011879149	0.0002268868
0.25690201	0.036997885	0.001185226	0.0002268868
0.25709894	0.026936026	0.00088067882	0.0002268868
0.25729588	0.036599763	0.0012325282	0.0002268868
0.25749281	0.022781774	0.00076378265	0.0002268868
0.25768974	0.041509435	0.001447873	0.0002268868
0.25788668	0.03622251	0.0012784905	0.0002268868
0.25808361	0.049399197	0.0017749376	0.0002268868
0.25828055	0.038303692	0.0013884495	0.0002268868
0.25847748	0.047210302	0.001757986	0.00022689829
0.25867444	0.050946143	0.0019074531	0.00022686248
0.25887138	0.036697246	0.0014007349	0.00022686248
0.25906831	0.040123455	0.001544402	0.00022686248
0.25926524	0.045958795	0.0017991955	0.0002268868
0.25946218	0.030100334	0.0011972156	0.00022686248
0.25965911	0.064516127	0.0026197513	0.0002268868
0.25985605	0.025996534	0.00104646	0.0002268868
0.26005298	0.036458332	0.0014766932	0.00022686248
0.26024991	0.047202796	0.0019245934	0.00022686248
0.26044685	0.058928572	0.0024450442	0.0002268868
0.26064378	0.039215688	0.0016120402	0.00022686248
0.26084071	0.052158274	0.002164745	0.00022686248
0.26103765	0.055248618	0.0023251844	0.00022686248
0.26123458	0.068518519	0.0029001976	0.00022686248
0.26143152	0.028301887	0.0011831176	0.0002268868
0.26162845	0.046210721	0.0019386484	0.00022686248
0.26182538	0.036328871	0.001547662	0.00022686248
0.26202232	0.045009784	0.0019454017	0.00022686248
0.26221925	0.045634922	0.0019860982	0.00022686248
0.26241618	0.047801148	0.0020430838	0.00022684968
0.26261315	0.065476194	0.0028639545	0.00022683818
0.26281008	0.075203255	0.0033300584	0.00022686248
0.26300701	0.039014373	0.0017174826	0.00022686248
0.26320395	0.036217302	0.0015752141	0.00022683818
0.26340088	0.042283297	0.0018919678	0.00022686248
0.26359782	0.052301254	0.0023345659	0.00022683818
0.26379475	0.0491453	0.0022241853	0.00022686248
0.26399168	0.057692308	0.0026197766	0.00022683818
0.26418862	0.034782607	0.0015719598	0.00022683818
0.26438555	0.042505592	0.0019532801	0.00022683818
0.26458248	0.048054919	0.0022459493	0.00022683818
0.26477942	0.058295965	0.0027056565	0.00022683818
0.26497635	0.039627038	0.0018582548	0.00022686248
0.26517329	0.046620045	0.0021906183	0.00022683818
0.26537022	0.029339854	0.0013907003	0.00022683818
0.26556715	0.048076924	0.0023002466	0.00022683818
0.26576409	0.042079207	0.0020335298	0.00022683818
0.26596102	0.047979798	0.0023428567	0.00022683818
0.26615795	0.03626943	0.0017812219	0.00022683818
0.26635489	0.043478262	0.0021358728	0.00022684968
0.26655185	0.039787799	0.0019823227	0.00022681388
0.26674879	0.052054796	0.0026478653	0.00022683818
0.26694572	0.045945946	0.0023204358	0.00022683818
0.26714265	0.043835618	0.0022246519	0.00022681388
0.26733959	0.04519774	0.0023195187	0.00022681388
0.26753652	0.059999999	0.0031268524	0.00022681388
0.26773345	0.057401814	0.0030665814	0.00022683818
0.26793039	0.038805969	0.0020400661	0.00022683818
0.26812732	0.044378698	0.0023243418	0.00022683818
0.26832426	0.046875	0.0025355041	0.00022683818
0.26852119	0.044444446	0.0024169092	0.00022683818
0.26871812	0.022508038	0.0011835413	0.00022683818
0.26891506	0.03215434	0.001732527	0.00022681388
0.26911199	0.030303031	0.0016605959	0.00022683818
0.26930892	0.023489933	0.0012619151	0.00022683818
0.26950586	0.017301038	0.00086505193	0.00022683818
0.26970279	0.020618556	0.0011052707	0.00022681388
0.26989973	0.025362318	0.0014159542	0.00022681388
0.27009666	0.026217228	0.0014882386	0.00022681388
0.27029359	0.011450382	0.0005787008	0.00022684968
0.27049056	0.010989011	0.00054403715	0.00022681388
0.27068749	0.019455252	0.0010875817	0.00022681388
0.27088442	0.0080321282	0.00036065321	0.00022681388
0.27108136	0.016736401	0.00093951618	0.00022681388
0.27127829	0.025210084	0.0014948909	0.00022681388
0.27147523	0	0	0.00022681388
0.27167216	0	0	0.00022681388
0.27186909	0.020408163	0	0.00022681388
0.27206603	0.041666668	0	0.00022681388
0.27226296	0	0	0.00022681388
