#   DataFileName=PAL30_55C_WAXS_08172017.tif
#   DataFileType=.tif
#   
#   DataFilePath=E:DATA:PAL30_08262017:
#   
#   Processed on=Wed, Jan 16, 2019,2:41:14 AM
#   Units=Arbitrary
#   SampleThickness=1
#   SampleTransmission=1
#   CorrectionFactor=1
#   SampleMeasurementTime=1
#   EmptyMeasurementTime=1
#   BackgroundMeasTime=1
#   SampleI0=1
#   EmptyI0=1
#   Nika_SampleToDetectorDistacne=1552.1
#   Nika_Wavelength=1.54
#   Nika_XrayEnergy=8.0509
#   Nika_PixelSizeX=0.075
#   Nika_PixelSizeY=0.075
#   Nika_HorizontalTilt=0
#   Nika_VerticalTilt=0
#   Nika_BeamCenterX=1540.3
#   Nika_BeamCenterY=830.17
#   Nika_BeamSizeX=0
#   Nika_BeamCenterY=830.17
#   CalibrationFormula=1*((Sa2D))
#   CurrentMaskFileName=PAL30_30C_WAXS_mask.hdf
#   QvectorMaxNumPnts=1
#   QvectorNumberPoints=1383
#   CircularAverage=1
#   PolarizationCorrection=None
#   UncertainityCalculationMethod=OldNikaMethod

0.0060065244	12	7.3484693	0.00022756745
0.00620346	8.1199999	1.6142697	0.00022756765
0.0064003952	6.2631578	0.82664508	0.00022756765
0.0065973303	6.2750001	0.70054793	0.00022756765
0.0067942655	8.8775511	0.89290512	0.00022756765
0.0069912006	10.457944	0.9991402	0.00022756745
0.0071881362	13.286885	1.1781888	0.00022756727
0.0073850714	14.885496	1.2720238	0.00022756727
0.0075820065	14.827586	1.2097422	0.00022756727
0.0077789417	14.496598	1.1766623	0.00022756745
0.0079758773	13.177216	1.0334154	0.00022756746
0.0081728119	11.239264	0.86773056	0.00022756707
0.0083697475	10.101124	0.74736458	0.00022756671
0.0085666822	9.1139898	0.64840764	0.00022756783
0.0087636178	7.9487181	0.56271088	0.00022756783
0.0089605534	7.3412323	0.49962181	0.00022756746
0.0091574881	6.3537116	0.41550469	0.00022756707
0.0093544237	5.8839998	0.36898279	0.00022756671
0.0095513584	5.3041825	0.32449692	0.00022756707
0.009748294	4.8492646	0.29161897	0.00022756707
0.0099452296	4.4187727	0.26339129	0.00022756595
0.010142164	4.384892	0.26102543	0.00022756707
0.0103391	3.8215489	0.22020642	0.00022756671
0.010536035	3.6101694	0.20880789	0.00022756707
0.01073297	3.1348684	0.17885174	0.00022756783
0.010929906	3.1446946	0.1770238	0.00022756746
0.01112684	3.0894568	0.17349102	0.00022756783
0.011323776	2.7891567	0.15229115	0.00022756746
0.011520711	2.640244	0.14487931	0.00022756707
0.011717646	2.5266273	0.13669473	0.00022756707
0.011914582	2.4385965	0.13112858	0.00022756746
0.012111517	2.2608695	0.12106499	0.00022756783
0.012308452	2.1923077	0.11426649	0.00022756671
0.012505387	2.2316384	0.11806878	0.00022756783
0.012702323	1.9074074	0.097691007	0.00022756783
0.012899258	1.6863271	0.086906105	0.00022756671
0.013096193	1.6596859	0.084487997	0.00022756707
0.013293128	1.5677749	0.07888221	0.00022756671
0.013490063	1.6185567	0.081801347	0.00022756707
0.013686999	1.4313725	0.070553087	0.00022756707
0.013883934	1.4574209	0.071578495	0.00022756671
0.014080869	1.2942584	0.063067831	0.00022756707
0.014277805	1.2329412	0.059559219	0.00022756671
0.014474739	1.2387707	0.059991509	0.0002275663
0.014671675	1.2054176	0.057069235	0.00022756707
0.014868611	1.1090909	0.052707255	0.00022756671
0.015065545	1.0505495	0.049078058	0.0002275663
0.015262481	1.0257511	0.047347914	0.00022756671
0.015459416	1.0131868	0.047357615	0.00022756595
0.01565635	0.97654587	0.044960584	0.00022756707
0.015853286	0.97452229	0.044754531	0.00022756554
0.016050221	0.87010312	0.039386794	0.00022756707
0.016247157	0.84615386	0.037949301	0.00022756707
0.016444093	0.90399998	0.040339243	0.00022756483
0.016641026	0.80722892	0.036061205	0.00022756707
0.016837962	0.72144288	0.032218933	0.00022756707
0.017034898	0.69455254	0.030567763	0.00022756554
0.017231833	0.66156787	0.028846506	0.00022756554
0.017428769	0.7096774	0.03083393	0.00022756483
0.017625703	0.61495328	0.026526058	0.00022756554
0.017822638	0.67039108	0.02885442	0.00022756554
0.018019574	0.59375	0.025367044	0.00022756554
0.018216509	0.57116789	0.0243381	0.00022756554
0.018413445	0.59928441	0.025285158	0.00022756483
0.018610379	0.61130744	0.025627943	0.00022756554
0.018807314	0.54624784	0.022754399	0.00022756554
0.01900425	0.57192373	0.023754979	0.00022756554
0.019201186	0.47027972	0.019595416	0.00022756554
0.019398121	0.51758796	0.021131948	0.00022756483
0.019595055	0.51186442	0.02101966	0.00022756554
0.019791991	0.48760331	0.019774185	0.00022756554
0.019988926	0.45950413	0.018621568	0.00022756554
0.020185862	0.37254903	0.01501566	0.00022756554
0.020382797	0.47611466	0.018951448	0.00022756483
0.020579731	0.43042073	0.017268963	0.00022756403
0.020776667	0.4028213	0.015909657	0.00022756403
0.020973602	0.40688577	0.016049795	0.00022756554
0.021170538	0.42031249	0.016578864	0.00022756403
0.021367474	0.41930619	0.016239975	0.0002275633
0.021564407	0.36068112	0.014140853	0.00022756403
0.021761343	0.39312407	0.015154137	0.00022756403
0.021958278	0.3831071	0.014842493	0.00022756403
0.022155214	0.37004405	0.014146676	0.00022756403
0.02235215	0.39098838	0.01486789	0.0002275633
0.022549083	0.40234947	0.015382263	0.00022756403
0.022746019	0.34184396	0.012843405	0.00022756403
0.022942955	0.33285511	0.0125734	0.00022756403
0.02313989	0.33097595	0.012414288	0.00022756403
0.023336826	0.31938633	0.011894416	0.0002275633
0.02353376	0.32208157	0.012052304	0.00022756403
0.023730695	0.30664858	0.011267752	0.00022756403
0.023927631	0.27034482	0.010011916	0.0002275625
0.024124566	0.28552279	0.01043015	0.00022756403
0.024321502	0.31501341	0.011503624	0.00022756179
0.024518436	0.3261745	0.011917667	0.0002275625
0.024715371	0.26877472	0.0097254384	0.0002275625
0.024912307	0.29854691	0.010821206	0.0002275625
0.025109243	0.28132993	0.010034694	0.0002275625
0.025306178	0.27813712	0.0099807708	0.00022756179
0.025503112	0.27841634	0.0099263554	0.0002275625
0.025700048	0.27064803	0.0096231131	0.0002275625
0.025896983	0.25063613	0.0089168437	0.0002275625
0.026093919	0.25862068	0.0090490123	0.00022756097
0.026290854	0.2853598	0.010027718	0.00022756179
0.026487788	0.27439025	0.0095571456	0.0002275625
0.026684724	0.23349634	0.0081419749	0.00022756097
0.026881659	0.24847747	0.008647969	0.0002275625
0.027078595	0.25656325	0.0088424748	0.00022756097
0.027275531	0.25872442	0.0089501953	0.00022756179
0.027472464	0.24214202	0.0082417158	0.00022756097
0.0276694	0.23995271	0.0082276389	0.00022756097
0.027866336	0.24477959	0.0083183292	0.00022756097
0.028063271	0.22093023	0.0075118956	0.00022756097
0.028260207	0.22144522	0.0075396583	0.00022756026
0.028457141	0.22558923	0.00753674	0.00022756097
0.028654076	0.22247446	0.0074732113	0.00022756097
0.028851012	0.23937359	0.0079840524	0.00022756097
0.029047947	0.24076147	0.0080351764	0.00022756097
0.029244883	0.22384702	0.0074854963	0.00022756026
0.029441817	0.23311546	0.0076742442	0.00022756097
0.029638752	0.21868132	0.0072316485	0.00022755946
0.029835688	0.21143474	0.0069238977	0.00022756097
0.030032624	0.23333333	0.0076330318	0.00022755946
0.030229559	0.2034632	0.0066760071	0.00022755875
0.030426493	0.17872341	0.0058131679	0.00022755946
0.030623429	0.19382322	0.0063075009	0.00022755946
0.030820364	0.20123839	0.0064481995	0.00022755946
0.0310173	0.19137749	0.0061886404	0.00022755946
0.031214235	0.18464731	0.0059296708	0.00022755946
0.031411171	0.20020534	0.0063974089	0.00022755875
0.031608105	0.18614271	0.0059699742	0.00022755571
0.031805038	0.18806876	0.0059645567	0.00022756017
0.032001976	0.18604651	0.0059003672	0.00022755875
0.03219891	0.20603015	0.0065164268	0.00022756017
0.032395847	0.2007992	0.0063300729	0.00022755875
0.032592781	0.18768619	0.0058984351	0.00022755875
0.032789715	0.18688846	0.0058291652	0.00022756017
0.032986652	0.18916257	0.0059218467	0.00022755571
0.033183586	0.17721519	0.0055151763	0.00022755713
0.033380523	0.18015414	0.005575588	0.00022755875
0.033577457	0.17244701	0.005337758	0.00022755571
0.033774391	0.20877026	0.0064319028	0.00022755713
0.033971328	0.20801526	0.0064108004	0.00022755571
0.034168262	0.16650899	0.0051070596	0.00022756017
0.0343652	0.17153628	0.0052519673	0.00022755571
0.034562133	0.181987	0.005530904	0.00022755571
0.034759067	0.21706864	0.0065968428	0.00022756017
0.034956004	0.2	0.0060713752	0.00022755571
0.035152938	0.15707763	0.0047324752	0.00022755713
0.035349876	0.15602189	0.0046985704	0.00022755571
0.035546809	0.15880218	0.0047703162	0.00022755571
0.035743743	0.14764492	0.0044299318	0.00022755713
0.035940681	0.17399102	0.0051975609	0.00022755571
0.036137614	0.178508	0.0053064474	0.00022755713
0.036334552	0.14920071	0.0044333078	0.00022755266
0.036531486	0.16225749	0.0048049297	0.00022755266
0.036728419	0.15873016	0.0046990602	0.00022755713
0.036925357	0.14782609	0.0043462361	0.00022755571
0.037122291	0.17115551	0.0050327098	0.00022755713
0.037319228	0.15684575	0.0046037845	0.00022755571
0.037516162	0.16115353	0.0046806205	0.00022755266
0.037713096	0.15681234	0.004576717	0.00022755713
0.037910033	0.14310052	0.0041635465	0.00022755266
0.038106967	0.16878711	0.0049037617	0.00022755409
0.038303904	0.15527426	0.0044980152	0.00022755266
0.038500838	0.16389351	0.0047151325	0.00022755266
0.038697772	0.1644628	0.0047158734	0.00022755409
0.038894709	0.17549668	0.0050369212	0.00022755266
0.039091643	0.15632755	0.004483758	0.00022755409
0.03928858	0.16721311	0.0047742766	0.00022755266
0.039485514	0.18521528	0.0052677733	0.00022755266
0.039682448	0.18521528	0.0052675693	0.00022755409
0.039879385	0.16465864	0.0046553961	0.00022755266
0.040076319	0.16159999	0.0045591001	0.00022755409
0.040273257	0.16693419	0.0047178334	0.00022754962
0.04047019	0.13842481	0.0038933484	0.00022754962
0.040667124	0.17394757	0.0048912568	0.00022755409
0.040864062	0.17279124	0.0048207063	0.00022755266
0.041060995	0.15007776	0.0041743061	0.00022755409
0.041257933	0.15522622	0.0043253312	0.00022754962
0.041454867	0.16031128	0.0044609713	0.00022755266
0.0416518	0.17042802	0.0047428254	0.00022755409
0.041848738	0.15343511	0.0042287284	0.00022754962
0.042045671	0.13384031	0.0036808932	0.00022754801
0.042242609	0.14752851	0.0040581534	0.00022754657
0.042439543	0.13667426	0.0037559019	0.00022754353
0.042636476	0.13523667	0.0036963245	0.00022754801
0.042833414	0.13930723	0.0038123722	0.00022754657
0.043030348	0.16355489	0.0044590412	0.00022754801
0.043227285	0.1646972	0.0044645783	0.00022754353
0.043424219	0.15917465	0.0043110866	0.00022754353
0.043621153	0.14264706	0.003858055	0.00022754801
0.04381809	0.17521994	0.0047341478	0.00022754353
0.044015024	0.16825165	0.0045410451	0.00022754495
0.044211961	0.1442029	0.003871778	0.00022754353
0.044408895	0.12877698	0.0034443475	0.00022754353
0.044605829	0.13721265	0.0036683518	0.00022754495
0.044802766	0.15494978	0.0041401046	0.00022754353
0.0449997	0.1477516	0.0039383541	0.00022754495
0.045196638	0.15477031	0.0041045821	0.00022754353
0.045393571	0.14751773	0.0039194142	0.00022754353
0.045590505	0.14786264	0.0039052558	0.00022754495
0.045787442	0.15357643	0.0040575946	0.00022754048
0.045984376	0.16111112	0.0042359848	0.00022754191
0.046181314	0.16932686	0.0044508227	0.00022754353
0.046378247	0.14433701	0.0037840081	0.00022754048
0.046575181	0.17265193	0.004527926	0.00022754191
0.046772119	0.1459904	0.0038127722	0.00022754353
0.046969052	0.16201498	0.0042172689	0.00022754495
0.04716599	0.14314929	0.0037279311	0.00022754048
0.047362924	0.1522911	0.0039432147	0.00022754048
0.047559857	0.16219839	0.0041890731	0.00022754495
0.047756795	0.1457354	0.0037674487	0.00022754048
0.047953729	0.15157612	0.0039155493	0.00022754495
0.048150666	0.16655608	0.004280868	0.00022754048
0.0483476	0.13404115	0.003444023	0.00022754048
0.048544534	0.15127702	0.0038613821	0.00022754191
0.048741471	0.17402768	0.0044584284	0.00022753744
0.048938405	0.14723127	0.0037477051	0.00022754191
0.049135342	0.15530799	0.0039659338	0.00022754048
0.049332276	0.16915101	0.0042959512	0.00022753744
0.04952921	0.16235447	0.0041187555	0.00022753887
0.049726147	0.14571245	0.0036900691	0.00022753744
0.049923081	0.13806206	0.0034647617	0.00022754191
0.050120018	0.17263427	0.0043547652	0.00022753744
0.050316952	0.15866922	0.0040032519	0.00022753744
0.050513886	0.13587302	0.0034136795	0.00022753887
0.050710823	0.15662651	0.0039337398	0.00022753744
0.050907757	0.12849163	0.0031909568	0.00022753887
0.051104695	0.14865708	0.0037055858	0.00022753744
0.051301628	0.16666667	0.0041543366	0.00022753744
0.051498562	0.14481898	0.0036068144	0.00022753887
0.0516955	0.18243662	0.0045262962	0.00022753744
0.051892433	0.15483476	0.0038200174	0.00022753887
0.052089371	0.14012346	0.0034708607	0.0002275344
0.052286305	0.18093504	0.0044482062	0.00022753744
0.052483238	0.14772037	0.0036317909	0.00022753583
0.052680176	0.15805471	0.0038867553	0.0002275344
0.052877109	0.15683891	0.0038573225	0.00022753887
0.053074047	0.1615431	0.0039564138	0.0002275344
0.053270981	0.17492537	0.0042636893	0.00022753744
0.053467914	0.14976133	0.0036484618	0.00022753887
0.053664852	0.15873016	0.0039119353	0.0002275344
0.053861786	0.1616099	0.0040109479	0.00022753583
0.054058723	0.15691158	0.0039053715	0.0002275344
0.054255657	0.15831788	0.00392693	0.0002275344
0.054452591	0.14884302	0.0037114867	0.00022753583
0.054649528	0.14223331	0.0035412863	0.0002275344
0.054846462	0.15423198	0.0038516698	0.00022753583
0.055043399	0.14555766	0.0036437509	0.00022753136
0.055240333	0.14908402	0.0037371232	0.0002275344
0.055437267	0.16068053	0.0040228041	0.00022753583
0.055634204	0.17334168	0.0043260907	0.00022753136
0.055831138	0.17732742	0.004451666	0.00022753279
0.056028076	0.15544367	0.0038889972	0.00022753136
0.056225009	0.1630847	0.0040898193	0.00022753136
0.056421943	0.17485641	0.0044064103	0.00022753279
0.05661888	0.1521056	0.0038020525	0.00022753136
0.056815814	0.17787555	0.0044492781	0.00022753279
0.057012752	0.15506329	0.0038902627	0.00022753136
0.057209685	0.17929293	0.0044934582	0.00022752832
0.057406619	0.19002526	0.0047642756	0.00022753279
0.057603557	0.19962098	0.0050063045	0.00022753136
0.05780049	0.19620253	0.0049250722	0.00022753279
0.057997428	0.19472362	0.0048695817	0.00022752832
0.058194362	0.19570707	0.0049063731	0.00022752832
0.058391295	0.21794061	0.005466911	0.00022752974
0.058588233	0.19987468	0.0049929498	0.00022752832
0.058785167	0.23227848	0.005832654	0.00022752974
0.058982104	0.22627279	0.0056621754	0.00022752832
0.059179038	0.22675879	0.0056726011	0.00022752832
0.059375972	0.2290749	0.0057363953	0.00022752974
0.059572909	0.19987468	0.0049923086	0.00022752528
0.059769843	0.22306238	0.0055889031	0.00022752974
0.05996678	0.21933086	0.0054490892	0.00022752528
0.060163714	0.2073094	0.0051927264	0.00022752528
0.060360648	0.19950125	0.004970633	0.00022752974
0.060557585	0.2028804	0.0050662537	0.00022752528
0.060754519	0.18046048	0.0044916575	0.0002275267
0.060951456	0.17228465	0.0042939978	0.00022752528
0.06114839	0.1941506	0.0048321318	0.00022752528
0.061345324	0.16064757	0.0039985874	0.0002275267
0.061542261	0.17204969	0.004277973	0.00022752528
0.061739195	0.16542289	0.0041149915	0.0002275267
0.061936133	0.18722877	0.0046499004	0.00022752528
0.062133066	0.1615099	0.0040071653	0.00022752528
0.06233	0.15938461	0.0039435192	0.00022752528
0.062526934	0.15080346	0.0037392396	0.0002275251
0.062723875	0.15632755	0.0038835215	0.00022751919
0.062920809	0.12330456	0.0030516898	0.00022752528
0.063117743	0.13949163	0.003462841	0.00022751919
0.063314676	0.12729499	0.0031395534	0.00022751919
0.06351161	0.14844227	0.0036586388	0.00022752814
0.063708551	0.11097486	0.0027386772	0.00022751919
0.063905485	0.13164401	0.0032618626	0.00022751919
0.064102419	0.14146341	0.0034833318	0.00022751919
0.064299352	0.12921004	0.0031878112	0.00022752528
0.064496286	0.11836486	0.0029142422	0.00022752205
0.064693227	0.099027947	0.0024311491	0.00022751919
0.064890161	0.12727273	0.0031235805	0.00022751919
0.065087095	0.11973122	0.0029494336	0.00022752528
0.065284029	0.13622481	0.0033573257	0.00022752528
0.065480962	0.11440678	0.0028056582	0.00022752205
0.065677904	0.12093863	0.0029577538	0.00022752528
0.065874837	0.11252268	0.0027586599	0.00022751919
0.066071771	0.12703191	0.003108091	0.00022751919
0.066268705	0.10761789	0.0026364168	0.00022751919
0.066465639	0.10716436	0.0026195983	0.00022752205
0.06666258	0.10598803	0.0025845189	0.00022751919
0.066859514	0.10417929	0.0025543794	0.00022751919
0.067056447	0.11831153	0.0028751716	0.00022751919
0.067253381	0.11954573	0.0029134091	0.00022751919
0.067450315	0.098625228	0.0024021491	0.00022751596
0.067647256	0.12754491	0.0031115029	0.00022751919
0.06784419	0.11390887	0.0027799197	0.00022751919
0.068041123	0.10887574	0.002639096	0.00022751311
0.068238057	0.10669828	0.0025893762	0.00022751311
0.068434991	0.11467617	0.0027862596	0.00022752205
0.068631932	0.12825058	0.0031077531	0.00022751311
0.068828866	0.11244019	0.0027407359	0.00022751311
0.0690258	0.10929281	0.002633248	0.00022751311
0.069222733	0.12160566	0.002945835	0.00022751311
0.069419667	0.096335694	0.0023334611	0.00022751596
0.069616608	0.11899179	0.0028725297	0.00022751311
0.069813542	0.098649442	0.0023822817	0.00022751311
0.070010476	0.10659599	0.0025776851	0.00022751311
0.07020741	0.093916126	0.0022736313	0.00022751311
0.070404343	0.10918544	0.0026163519	0.00022752205
0.070601285	0.11266784	0.0027140328	0.00022751311
0.070798218	0.10865775	0.0026113784	0.00022751311
0.070995152	0.11906158	0.0028755493	0.00022751311
0.071192086	0.099824868	0.0024036397	0.00022751311
0.071389019	0.098964326	0.0023659321	0.00022751596
0.071585961	0.10904872	0.0026186954	0.00022750701
0.071782894	0.082658961	0.0019801469	0.00022751311
0.071979828	0.093441673	0.0022424993	0.00022751311
0.072176762	0.080691643	0.0019292567	0.00022751311
0.072373696	0.099713467	0.0023790135	0.00022751596
0.072570637	0.085797101	0.0020582215	0.00022751311
0.072767571	0.09152928	0.002173912	0.00022750701
0.072964504	0.072337963	0.0017316935	0.00022750701
0.073161438	0.10732538	0.0025494802	0.00022751311
0.073358372	0.093249425	0.00222263	0.00022750988
0.073555313	0.082949311	0.0019830479	0.00022750701
0.073752247	0.091011874	0.0021558367	0.00022751311
0.073949181	0.087328769	0.0020783397	0.00022750701
0.074146114	0.10696095	0.0025365748	0.00022751311
0.074343048	0.085567601	0.0020354567	0.00022750988
0.074539989	0.089153893	0.0021166997	0.00022750701
0.074736923	0.07154835	0.0016840894	0.00022750701
0.074933857	0.073420607	0.0017441198	0.00022750701
0.07513079	0.06869369	0.0016224717	0.00022750701
0.075327724	0.078265764	0.0018494485	0.0002275038
0.075524665	0.068169013	0.0016103452	0.00022750701
0.075721599	0.084632516	0.0019893532	0.00022750093
0.075918533	0.086711712	0.0020498093	0.00022750701
0.076115467	0.081701174	0.001924795	0.00022750701
0.0763124	0.082635403	0.0019444099	0.00022750988
0.076509342	0.072302558	0.0016976178	0.00022750701
0.076706275	0.072737366	0.0017064755	0.00022750701
0.076903209	0.069506727	0.0016379245	0.00022750701
0.077100143	0.088154271	0.0020618439	0.00022750093
0.077297077	0.080931261	0.001898365	0.0002275038
0.077494018	0.083426028	0.0019602987	0.00022750093
0.077690952	0.073666848	0.0017200123	0.00022750093
0.077887885	0.078551531	0.0018464843	0.00022750093
0.078084819	0.075708061	0.0017598853	0.00022750093
0.078281753	0.089157954	0.0020846878	0.0002275038
0.078478694	0.085855804	0.0020062444	0.00022750093
0.078675628	0.082468599	0.0019203076	0.00022750093
0.078872561	0.068357222	0.0015977682	0.00022750093
0.079069495	0.080108993	0.0018622305	0.00022750093
0.079266429	0.082924165	0.0019294975	0.0002275038
0.07946337	0.090512544	0.0021065776	0.00022750093
0.079660304	0.081665762	0.0018911584	0.00022750093
0.079857238	0.07864555	0.0018310628	0.00022750093
0.080054171	0.078961603	0.0018290412	0.00022750093
0.080251105	0.076294281	0.0017734186	0.0002275038
0.080448046	0.077088952	0.0017831095	0.00022749485
0.08064498	0.078158461	0.0018009462	0.00022750093
0.080841914	0.063956641	0.0014819799	0.00022750093
0.081038848	0.06437768	0.0014845635	0.00022749485
0.081235781	0.065476194	0.0015157541	0.00022749772
0.081432723	0.049092848	0.0011275002	0.00022749485
0.081629656	0.067733333	0.0015573102	0.00022749485
0.08182659	0.072844133	0.0016788226	0.00022749485
0.082023524	0.059606172	0.001367859	0.00022749485
0.082220457	0.065740243	0.0015128306	0.00022749772
0.082417399	0.064533331	0.0014828191	0.00022749485
0.082614332	0.076636508	0.0017605666	0.00022749485
0.082811266	0.075411581	0.0017310573	0.00022749485
0.0830082	0.066842109	0.0015266698	0.00022749485
0.083205134	0.074524313	0.0017066423	0.00022749163
0.083402075	0.074484944	0.0017051169	0.00022749485
0.083599009	0.059606172	0.0013681897	0.00022749485
0.083795942	0.082896121	0.0018918759	0.00022748877
0.083992876	0.075432166	0.0017189708	0.00022749485
0.08418981	0.073821992	0.0016826551	0.00022749772
0.084386751	0.073260076	0.0016684949	0.00022748877
0.084583685	0.070569783	0.0016071048	0.00022749485
0.084780619	0.080687143	0.0018341662	0.00022749485
0.084977552	0.070981212	0.0016149995	0.00022748877
0.085174486	0.071871765	0.0016275513	0.00022749163
0.085371427	0.065002598	0.0014759975	0.00022748877
0.085568361	0.068965517	0.0015578993	0.00022748877
0.085765295	0.065843619	0.0014868944	0.00022748877
0.085962228	0.05995829	0.0013620009	0.00022748877
0.086159162	0.061277036	0.0013837258	0.00022748555
0.086356103	0.061671764	0.0013852764	0.00022748877
0.086553037	0.068275154	0.0015402607	0.00022748877
0.086749971	0.070594214	0.0015845897	0.00022748877
0.086946905	0.06069959	0.0013702079	0.00022748268
0.087143838	0.064875826	0.001454227	0.00022749163
0.08734078	0.068332486	0.0015365813	0.00022748877
0.087537713	0.059777103	0.0013391831	0.00022748268
0.087734647	0.066262014	0.0014840619	0.00022748877
0.087931581	0.060975611	0.0013677623	0.00022748877
0.088128515	0.072827727	0.0016249756	0.00022748555
0.088325456	0.058912385	0.0013156555	0.00022748268
0.08852239	0.057215191	0.0012813484	0.00022748268
0.088719323	0.065901145	0.0014662499	0.00022748268
0.088916257	0.063126251	0.0014061739	0.00022748268
0.089113191	0.064935066	0.0014450002	0.00022748555
0.089310132	0.059440561	0.0013225444	0.00022748268
0.089507066	0.052290838	0.001160795	0.00022748268
0.089703999	0.060515873	0.0013415016	0.00022748268
0.089900933	0.056000002	0.0012461045	0.00022748268
0.090097867	0.059517954	0.0013137866	0.00022747947
0.090294808	0.059820537	0.0013296354	0.00022748268
0.090491742	0.06906759	0.001527237	0.00022748268
0.090688676	0.067226894	0.001488883	0.00022748268
0.090885609	0.060217176	0.0013311283	0.0002274766
0.091082543	0.067946821	0.0015008453	0.00022748268
0.091279477	0.070339397	0.0015538651	0.00022748555
0.091476418	0.066404328	0.0014661807	0.0002274766
0.091673352	0.063476562	0.0013965827	0.00022748268
0.091870286	0.077074125	0.0017014249	0.0002274766
0.092067219	0.052889325	0.0011649673	0.0002274766
0.092264153	0.07010711	0.0015410696	0.00022747947
0.092461094	0.062439024	0.0013732242	0.0002274766
0.092658028	0.061124694	0.0013452759	0.0002274766
0.092854962	0.059990324	0.0013138019	0.0002274766
0.093051895	0.062348962	0.0013647347	0.0002274766
0.093248829	0.051481303	0.0011285403	0.00022747337
0.09344577	0.067182213	0.0014713975	0.0002274766
0.093642704	0.065111756	0.001429299	0.00022747052
0.093839638	0.063645132	0.0013915136	0.0002274766
0.094036572	0.069745071	0.0015232515	0.0002274766
0.094233505	0.068882465	0.0015057565	0.00022747947
0.094430447	0.056992337	0.0012414043	0.00022747052
0.09462738	0.063768119	0.0013957921	0.00022747052
0.094824314	0.05451937	0.0011864811	0.00022747052
0.095021248	0.056486357	0.0012303861	0.00022747052
0.095218182	0.056163732	0.0012198584	0.00022747337
0.095415123	0.070234112	0.0015292598	0.00022747052
0.095612057	0.060981419	0.0013251677	0.00022747052
0.09580899	0.062291965	0.001352446	0.00022747052
0.096005924	0.067942582	0.0014806176	0.00022747052
0.096202858	0.063537225	0.0013775282	0.00022747337
0.096399799	0.071867615	0.0015572491	0.00022747052
0.096596733	0.060206961	0.0013002401	0.00022746444
0.096793666	0.07561437	0.0016376149	0.00022747052
0.0969906	0.062854439	0.001360257	0.00022746444
0.097187534	0.081526861	0.0017637443	0.00022747337
0.097384475	0.065186583	0.0014106857	0.00022746444
0.097581409	0.059680451	0.0012883733	0.00022747052
0.097778343	0.064681247	0.0013898467	0.00022746444
0.097975276	0.064941175	0.0014030974	0.00022746444
0.09817221	0.070895523	0.0015252902	0.00022746729
0.098369151	0.058462989	0.0012633604	0.00022746444
0.098566085	0.081519224	0.001747788	0.00022746444
0.098763019	0.076814987	0.0016560809	0.00022746444
0.098959953	0.061517112	0.00131722	0.00022746444
0.099156886	0.065588914	0.001403777	0.00022746121
0.099353828	0.053688142	0.0011541856	0.00022746444
0.099550761	0.059014872	0.0012662434	0.00022745834
0.099747695	0.069617338	0.001489214	0.00022745834
0.099944629	0.057354301	0.0012276691	0.00022745834
0.10014156	0.068505749	0.0014637187	0.00022746121
0.1003385	0.054453161	0.0011641247	0.00022745834
0.10053544	0.065596327	0.0013994916	0.00022746444
0.10073237	0.058085501	0.0012464271	0.00022745834
0.1009293	0.068285979	0.0014566798	0.00022746444
0.10112624	0.074090905	0.0015740545	0.00022746121
0.10132318	0.067555144	0.0014425898	0.00022746444
0.10152011	0.055429351	0.0011761867	0.00022745834
0.10171705	0.055784181	0.0011875004	0.00022745834
0.10191398	0.061075661	0.0012986092	0.00022745834
0.10211091	0.064869806	0.0013809579	0.00022746121
0.10230786	0.066848569	0.0014198803	0.00022745834
0.10250479	0.066907778	0.0014174584	0.00022745226
0.10270172	0.058108106	0.0012283912	0.00022745226
0.10289866	0.065148063	0.0013853733	0.00022745226
0.10309559	0.067689531	0.0014321654	0.00022745512
0.10329253	0.054850407	0.00116261	0.00022745226
0.10348947	0.056950673	0.0012004579	0.00022745834
0.1036864	0.054504506	0.0011513105	0.00022745226
0.10388333	0.063705698	0.0013442832	0.00022745226
0.10408027	0.062977955	0.0013305667	0.00022746121
0.10427721	0.063677132	0.00134264	0.00022745226
0.10447414	0.06146254	0.0012965288	0.00022745226
0.10467108	0.055258468	0.0011612145	0.00022745226
0.10486801	0.054090299	0.001138445	0.00022745226
0.10506494	0.070509978	0.0014794224	0.00022745512
0.10526188	0.081069045	0.0017057798	0.00022745226
0.10545882	0.079230078	0.0016707923	0.00022744617
0.10565575	0.09082853	0.0019064294	0.00022745226
0.10585269	0.089698046	0.0018844084	0.00022745226
0.10604962	0.097173147	0.0020369494	0.00022745512
0.10624656	0.09026549	0.0018934102	0.00022744617
0.10644349	0.094880849	0.0019881662	0.00022744617
0.10664043	0.11492734	0.0024064586	0.00022745226
0.10683736	0.099071205	0.0020781141	0.00022744617
0.1070343	0.11267605	0.0023590296	0.00022744904
0.10723124	0.10931351	0.0022809296	0.00022744617
0.10742817	0.11585903	0.0024262366	0.00022744617
0.1076251	0.12234274	0.0025429029	0.00022744617
0.10782204	0.11340659	0.0023725193	0.00022744617
0.10801897	0.090948842	0.0018968851	0.00022744904
0.10821591	0.10153173	0.0021189917	0.00022744617
0.10841285	0.099825636	0.00207917	0.00022744617
0.10860978	0.095196888	0.0019753228	0.00022744009
0.10880671	0.096136965	0.0020091615	0.00022744009
0.10900365	0.092792407	0.0019229184	0.00022744904
0.10920059	0.090791181	0.0018829767	0.00022744009
0.10939752	0.097613886	0.0020279305	0.00022744009
0.10959446	0.087688982	0.0018177413	0.00022744009
0.10979139	0.085577756	0.0017785298	0.00022744009
0.10998832	0.090870127	0.0018765711	0.00022744296
0.11018527	0.099180683	0.002054868	0.00022744009
0.1103822	0.091339938	0.0018910607	0.00022744009
0.11057913	0.096137337	0.0019868352	0.00022743401
0.11077607	0.10585198	0.0021910167	0.00022744009
0.110973	0.11839864	0.0024384926	0.00022743687
0.11116994	0.11415134	0.0023555099	0.00022743401
0.11136688	0.11820129	0.0024414407	0.00022743401
0.11156381	0.15440238	0.0031798163	0.00022743401
0.11176074	0.15854701	0.0032728098	0.00022743401
0.11195768	0.18532655	0.0038117627	0.00022744296
0.11215462	0.19110732	0.0039467551	0.00022743401
0.11235155	0.22453311	0.0046208636	0.00022743401
0.11254849	0.2418742	0.0049646902	0.00022743401
0.11274542	0.24005081	0.0049344399	0.00022743401
0.11294235	0.25668222	0.0052823559	0.00022743687
0.11313929	0.26407111	0.0054277075	0.00022743401
0.11333623	0.30172053	0.0061762501	0.00022743401
0.11353316	0.27822411	0.0057164868	0.00022742792
0.1137301	0.29705882	0.0060844733	0.00022743401
0.11392703	0.32677823	0.0066793063	0.00022743079
0.11412397	0.30701387	0.0062870728	0.00022742792
0.1143209	0.32198402	0.0065969047	0.00022742792
0.11451784	0.31979907	0.0065383636	0.00022742792
0.11471477	0.35879144	0.0073452173	0.00022742792
0.11491171	0.37655345	0.007659622	0.00022743079
0.11510865	0.38898164	0.0079417201	0.00022742792
0.11530558	0.43921733	0.0089571374	0.00022742792
0.11550251	0.49351737	0.010088131	0.00022742792
0.11569945	0.58143389	0.011831398	0.00022742792
0.11589638	0.70914358	0.01441924	0.00022743079
0.11609332	0.97147584	0.019746579	0.00022742792
0.11629026	1.3067054	0.026577728	0.00022742792
0.11648719	1.9570071	0.03978144	0.00022742184
0.11668412	2.8468208	0.057835005	0.00022742184
0.11688106	4.0323114	0.082055993	0.00022742471
0.117078	5.8310032	0.11822081	0.00022742184
0.11727493	7.8579617	0.15895927	0.00022742184
0.11747187	10.635284	0.21514568	0.00022742184
0.1176688	13.256252	0.26838842	0.00022742184
0.11786573	16.103548	0.32704544	0.00022742471
0.11806267	18.349939	0.37076491	0.00022742184
0.11825961	20.095861	0.40671209	0.00022742184
0.11845654	20.716139	0.41714019	0.00022742184
0.11865348	20.797314	0.41954568	0.00022742184
0.11885041	19.854977	0.40185016	0.00022741863
0.11904735	18.74332	0.3771202	0.00022741576
0.11924428	17.053295	0.34395373	0.00022741576
0.11944122	15.290857	0.30753118	0.00022741576
0.11963815	13.441511	0.27088201	0.00022741576
0.11983509	11.681398	0.23412672	0.00022741863
0.12003203	9.9785948	0.20051627	0.00022741576
0.12022896	8.4640388	0.17059448	0.00022741576
0.12042589	7.0603237	0.14203788	0.00022741576
0.12062283	5.8112226	0.11631906	0.00022741576
0.12081976	4.5924587	0.091957003	0.00022741863
0.1210167	3.4768	0.069519326	0.00022741576
0.12121364	2.6732633	0.053709786	0.00022740968
0.12141057	1.9748503	0.039447445	0.00022740968
0.1216075	1.4424388	0.02888131	0.00022741576
0.12180444	1.0410032	0.020763615	0.00022741254
0.12200138	0.82502991	0.016465692	0.00022740968
0.12219831	0.66453671	0.013275249	0.00022741576
0.12239525	0.53306931	0.010603975	0.00022741576
0.12259218	0.46504194	0.0092906207	0.00022740968
0.12278911	0.41464385	0.0082666501	0.00022741254
0.12298606	0.37251788	0.0074196248	0.00022740968
0.12318299	0.31551862	0.006273482	0.00022740968
0.12337992	0.30561003	0.0060489005	0.00022740968
0.12357686	0.28480762	0.0056682737	0.00022740968
0.12377379	0.25642037	0.0050924802	0.00022740646
0.12397073	0.22463483	0.0044588149	0.00022740968
0.12416767	0.2136685	0.0042303232	0.00022740359
0.1243646	0.1677116	0.0033154907	0.00022740359
0.12456153	0.15851735	0.0031434326	0.00022740359
0.12475847	0.1598746	0.0031599635	0.00022740646
0.12495541	0.14994097	0.0029703644	0.00022739463
0.12515233	0.14933541	0.0029484308	0.00022740323
0.12534928	0.15725963	0.003098343	0.00022739751
0.12554622	0.1286664	0.0025403341	0.00022739751
0.12574315	0.10104936	0.0019881318	0.00022739751
0.12594008	0.10472841	0.002066039	0.00022739751
0.12613702	0.12125923	0.002386475	0.00022740968
0.12633395	0.10721248	0.0021127926	0.00022740968
0.12653089	0.099147946	0.0019472127	0.00022739751
0.12672782	0.097372487	0.0019096847	0.00022739751
0.12692475	0.098520249	0.0019402173	0.00022739751
0.12712169	0.099157736	0.001935836	0.00022740323
0.12731864	0.082037322	0.0016135476	0.00022739751
0.12751557	0.085032701	0.0016640123	0.00022739751
0.1277125	0.1	0.0019568321	0.00022739751
0.12790944	0.087292388	0.0017112328	0.00022739751
0.12810637	0.078431375	0.001533687	0.00022739751
0.1283033	0.088922963	0.0017365488	0.00022739751
0.12850024	0.082023762	0.0016017242	0.00022739751
0.12869717	0.084130019	0.0016411778	0.00022738535
0.12889411	0.088359587	0.0017276504	0.00022739751
0.12909104	0.085583873	0.0016649649	0.00022740323
0.12928799	0.088190183	0.0017227165	0.00022739751
0.12948492	0.073133759	0.0014194814	0.00022739751
0.12968186	0.07489492	0.0014596155	0.00022738535
0.12987879	0.077303886	0.001504252	0.00022738535
0.13007572	0.080968596	0.0015709816	0.00022738535
0.13027266	0.058599696	0.0011391116	0.00022738535
0.13046959	0.063492067	0.00123025	0.00022738535
0.13066652	0.074706107	0.0014507314	0.00022738535
0.13086346	0.06767486	0.0013121536	0.00022739751
0.13106039	0.073143288	0.0014125836	0.00022740323
0.13125734	0.068060838	0.0013228563	0.00022738535
0.13145427	0.054470323	0.0010517339	0.00022738535
0.13165121	0.069679849	0.0013483849	0.00022738535
0.13184814	0.058074184	0.0011199836	0.00022738535
0.13204508	0.060015004	0.0011585457	0.00022738535
0.13224201	0.068731114	0.0013317472	0.00022738535
0.13243894	0.061659195	0.0011879306	0.00022738535
0.13263588	0.063710876	0.0012259289	0.00022738535
0.13283281	0.063201196	0.0012182549	0.00022738535
0.13302974	0.058383234	0.0011253903	0.00022739106
0.13322669	0.064179108	0.0012358025	0.00022738535
0.13342363	0.067086734	0.0012876359	0.00022738535
0.13362056	0.058299296	0.0011193203	0.00022738535
0.13381749	0.058889303	0.0011329693	0.00022737318
0.13401443	0.056175597	0.0010795451	0.00022737318
0.13421136	0.054916512	0.0010534948	0.00022738535
0.1344083	0.051215917	0.00097902783	0.00022737318
0.13460523	0.05728012	0.0010971806	0.00022737318
0.13480216	0.062081784	0.001193056	0.00022737318
0.1349991	0.04851852	0.00092990382	0.0002273789
0.13519605	0.050711419	0.00096504908	0.00022737318
0.13539298	0.046279155	0.00088672963	0.00022737318
0.13558991	0.056043956	0.0010688489	0.00022737318
0.13578685	0.058066886	0.0011093158	0.00022737318
0.13598378	0.051629439	0.00098427513	0.00022737318
0.13618071	0.055964652	0.0010699155	0.00022737318
0.13637765	0.049798608	0.00094932516	0.00022737318
0.13657458	0.052246984	0.00099476974	0.00022737318
0.13677152	0.043367349	0.00082419853	0.00022737318
0.13696845	0.051235463	0.00097317697	0.00022737318
0.13716538	0.054399416	0.0010357094	0.0002273789
0.13736233	0.055250641	0.0010533615	0.00022737318
0.13755926	0.055997111	0.0010608758	0.00022737318
0.1377562	0.045156591	0.00085795351	0.00022737318
0.13795313	0.055515241	0.0010537121	0.00022736102
0.13815007	0.050920911	0.00096398324	0.00022736102
0.138347	0.044597533	0.00084533764	0.00022737318
0.13854393	0.048920862	0.00092413253	0.00022737318
0.13874087	0.044363637	0.00084214646	0.00022736102
0.1389378	0.047292419	0.00089508452	0.00022736102
0.13913473	0.048369762	0.0009119882	0.00022736673
0.13933168	0.056793675	0.0010729402	0.00022737318
0.13952862	0.04308797	0.00081287127	0.00022737318
0.13972555	0.054869186	0.00104224	0.00022736102
0.13992248	0.044191018	0.0008306888	0.00022736102
0.14011942	0.050197203	0.00094669161	0.00022736102
0.14031635	0.050429184	0.00095000392	0.00022737318
0.14051329	0.051016767	0.00096016988	0.00022736102
0.14071022	0.056332976	0.0010633824	0.00022736102
0.14090715	0.052799433	0.00099030382	0.00022736102
0.14110409	0.042841841	0.00080585887	0.00022736673
0.14130104	0.058613297	0.0011042769	0.00022736102
0.14149797	0.070163004	0.0013171647	0.00022736102
0.1416949	0.057112452	0.0010721917	0.00022734885
0.14189184	0.042756185	0.00080014911	0.00022736102
0.14208877	0.053571429	0.0010087531	0.00022736102
0.1422857	0.046082951	0.00086408714	0.00022736102
0.14248264	0.044226043	0.00082516333	0.00022736102
0.14267957	0.043971632	0.00082445575	0.00022736102
0.14287651	0.046045695	0.0008597183	0.00022736102
0.14307344	0.049186129	0.00092173705	0.00022735457
0.14327039	0.044272665	0.00082646852	0.00022736102
0.14346732	0.040816326	0.00076211902	0.00022734885
0.14366426	0.037908036	0.00070642354	0.00022734885
0.14386119	0.036153037	0.00067357183	0.00022736102
0.14405812	0.042031523	0.00078326609	0.00022734885
0.14425506	0.04255319	0.00079117279	0.00022734885
0.14445199	0.0382322	0.00071268028	0.00022734885
0.14464892	0.045630045	0.00085117534	0.00022734885
0.14484586	0.046576295	0.00086501188	0.00022734885
0.14504279	0.034170154	0.00063456682	0.00022735457
0.14523974	0.043538354	0.00080614357	0.00022734885
0.14543667	0.048053313	0.0008963485	0.00022733668
0.14563361	0.048594236	0.00090179662	0.00022734885
0.14583054	0.044838373	0.00083224213	0.00022734885
0.14602748	0.048426151	0.00089707499	0.00022734885
0.14622441	0.042575285	0.00078885915	0.00022733668
0.14642134	0.040082932	0.00074127869	0.00022734885
0.14661828	0.049931131	0.00092298654	0.00022733668
0.14681521	0.049913343	0.00092561729	0.00022733668
0.14701214	0.051397033	0.00095076195	0.0002273424
0.14720909	0.048570443	0.00089736935	0.00022733668
0.14740603	0.052395724	0.00096920889	0.00022733668
0.14760296	0.060286105	0.0011088224	0.00022733668
0.14779989	0.052015156	0.00096176675	0.00022733668
0.14799683	0.054081984	0.00099999306	0.00022733668
0.14819376	0.052197803	0.00096380588	0.00022733668
0.1483907	0.053064018	0.00097820559	0.00022733668
0.14858763	0.043567054	0.00080031785	0.00022733668
0.14878456	0.042940572	0.00079262006	0.00022733668
0.1489815	0.048135594	0.00088269805	0.0002273424
0.14917845	0.041908007	0.00076981925	0.00022733668
0.14937538	0.049795363	0.00091557868	0.00022733668
0.14957231	0.038604807	0.00070691365	0.00022733668
0.14976925	0.049315069	0.00090893492	0.00022733668
0.14996618	0.048533872	0.0008873344	0.00022733668
0.15016311	0.044067796	0.00080754439	0.00022732452
0.15036005	0.040462427	0.0007424092	0.00022732452
0.15055698	0.046832886	0.00085602095	0.00022733668
0.15075392	0.050985724	0.00093647424	0.00022733668
0.15095085	0.05132506	0.00093631848	0.00022733024
0.1511478	0.047490738	0.0008675665	0.00022732452
0.15134473	0.050388906	0.0009226299	0.00022733668
0.15154167	0.042267695	0.00077047077	0.00022732452
0.1517386	0.035158891	0.00064308452	0.00022732452
0.15193553	0.043201607	0.00078732433	0.00022732452
0.15213247	0.039327729	0.00071790745	0.00022733668
0.1523294	0.041233659	0.00075161207	0.00022732452
0.15252633	0.04131956	0.00075119268	0.00022732452
0.15272327	0.041150887	0.00074929983	0.00022732452
0.1529202	0.046379711	0.000843669	0.00022733024
0.15311715	0.040576793	0.00073980144	0.00022732452
0.15331408	0.039215688	0.0007117819	0.00022732452
0.15351102	0.043218084	0.0007847668	0.00022732452
0.15370795	0.041597337	0.00075566844	0.00022731235
0.15390489	0.039600667	0.00071922597	0.00022732452
0.15410182	0.045980815	0.00083306781	0.00022732452
0.15429875	0.04219269	0.00076561567	0.00022732452
0.15449569	0.04116866	0.00074673776	0.00022731235
0.15469262	0.04500331	0.00081527879	0.00022731235
0.15488955	0.047760211	0.00086340302	0.00022731809
0.1550865	0.044466402	0.0008036184	0.00022732452
0.15528344	0.049039099	0.00088941184	0.00022731235
0.15548037	0.047366679	0.00085897889	0.00022731235
0.1556773	0.040327869	0.00072717364	0.00022731235
0.15587424	0.039209224	0.00070868817	0.00022731235
0.15607117	0.032637075	0.00058657519	0.00022731235
0.1562681	0.034289483	0.00061955035	0.00022731235
0.15646504	0.041064389	0.00074114301	0.00022732452
0.15666197	0.038587313	0.00069469056	0.00022731235
0.15685891	0.047728017	0.0008595573	0.00022731809
0.15705585	0.040783033	0.00073334889	0.00022731235
0.15725279	0.041584808	0.00074922165	0.00022731235
0.15744972	0.047139142	0.00084689882	0.00022731235
0.15764666	0.03515625	0.00063107273	0.00022731235
0.15784359	0.039999999	0.00072103867	0.00022731235
0.15804052	0.04150454	0.00074392883	0.00022731235
0.15823746	0.043662433	0.00078498007	0.00022731235
0.15843439	0.040888604	0.00073039223	0.00022731235
0.15863132	0.045719843	0.00081990624	0.00022730019
0.15882826	0.052442998	0.00094330165	0.00022731809
0.15902521	0.056884293	0.0010195201	0.00022730019
0.15922214	0.055393588	0.00099371932	0.00022730019
0.15941907	0.044259142	0.00078940974	0.00022731235
0.15961601	0.040142439	0.00071894121	0.00022730019
0.15981294	0.040244687	0.00071864249	0.00022730019
0.16000988	0.038312942	0.0006839885	0.00022730019
0.16020681	0.043478262	0.00077697769	0.00022730019
0.16040374	0.041680027	0.00074262335	0.00022730019
0.16060068	0.041586075	0.00074321131	0.00022730019
0.16079761	0.041148324	0.00073155039	0.00022730592
0.16099456	0.042105265	0.00074883178	0.00022730019
0.16119149	0.046025105	0.00082209235	0.00022730019
0.16138843	0.040294211	0.00071736798	0.00022730019
0.16158536	0.048702341	0.00086854649	0.00022730019
0.16178229	0.035907213	0.0006367368	0.00022728802
0.16197923	0.034460753	0.00061227771	0.00022728802
0.16217616	0.045454547	0.00080685137	0.00022728802
0.1623731	0.042661574	0.00075733231	0.00022728802
0.16257003	0.033957474	0.00060177565	0.00022728802
0.16276696	0.039390087	0.00069854711	0.00022730592
0.16296391	0.041613724	0.00073805382	0.00022728802
0.16316085	0.034166403	0.00060439651	0.00022730019
0.16335778	0.038595382	0.00068292714	0.00022728802
0.16355471	0.045382917	0.00080244843	0.00022728802
0.16375165	0.04099419	0.00073313172	0.00022728802
0.16394858	0.033028122	0.00059410115	0.00022728802
0.16414551	0.033627164	0.00060439511	0.00022728802
0.16434245	0.039656311	0.00071730901	0.00022728802
0.16453938	0.038896278	0.00070565596	0.00022728802
0.16473632	0.045439359	0.0008269776	0.00022729376
0.16493326	0.04380054	0.00080039975	0.00022728802
0.1651302	0.052331433	0.0009549277	0.00022727586
0.16532713	0.036251709	0.0006668134	0.00022728802
0.16552407	0.05044008	0.00092403591	0.00022727586
0.165721	0.051186442	0.00093866378	0.00022728802
0.16591793	0.043254375	0.00079755834	0.00022727586
0.16611487	0.039424066	0.00072567334	0.00022727586
0.1663118	0.046875	0.00086965214	0.00022728802
0.16650873	0.039188724	0.00072295842	0.00022728802
0.16670567	0.032724768	0.00060365925	0.00022728159
0.16690262	0.034734283	0.00064343325	0.00022727586
0.16709955	0.038662486	0.00071778119	0.00022727586
0.16729648	0.037570223	0.0007003948	0.00022727586
0.16749342	0.035863511	0.00066498795	0.00022727586
0.16769035	0.042672262	0.00078080076	0.00022727586
0.16788729	0.042019773	0.00078590988	0.00022727586
0.16808422	0.039638385	0.00073509547	0.00022727586
0.16828115	0.040736806	0.00076239783	0.00022727586
0.16847809	0.040042151	0.0007465313	0.00022726369
0.16867502	0.034742121	0.0006532392	0.00022728159
0.16887197	0.040439874	0.00075797731	0.00022727586
0.1690689	0.037782487	0.00070596521	0.00022726369
0.16926584	0.033759773	0.0006321714	0.00022727586
0.16946277	0.033831909	0.00063462619	0.00022727586
0.1696597	0.04135203	0.0007801535	0.00022726369
0.16985664	0.042394016	0.00079626346	0.00022726369
0.17005357	0.041086104	0.0007725801	0.00022727586
0.17025051	0.042759612	0.00080658711	0.00022726369
0.17044744	0.030476874	0.00057347008	0.00022726369
0.17064437	0.037477478	0.00070727995	0.00022726943
0.17084132	0.031677466	0.00059746235	0.00022727586
0.17103826	0.035701275	0.00067719782	0.00022726369
0.17123519	0.030039812	0.00056746905	0.00022726369
0.17143212	0.031328771	0.00059039413	0.00022726369
0.17162906	0.035830621	0.00067762565	0.00022726369
0.17182599	0.041862145	0.00079094694	0.00022726369
0.17202292	0.04712813	0.00090004515	0.00022726369
0.17221986	0.053720508	0.0010195448	0.00022726369
0.17241679	0.037185565	0.00070582132	0.00022726369
0.17261373	0.039372951	0.00074764044	0.00022725726
0.17281067	0.044412088	0.0008435265	0.00022726369
0.17300761	0.04658841	0.00088800653	0.00022726369
0.17320454	0.043367349	0.00082396349	0.00022725153
0.17340147	0.032865584	0.00062755967	0.00022725153
0.17359841	0.049391817	0.00094425865	0.00022725153
0.17379534	0.042967316	0.00081906363	0.00022726369
0.17399228	0.047671434	0.00090871908	0.00022726369
0.17418921	0.036290321	0.00069070974	0.00022725153
0.17438614	0.040937848	0.00078551378	0.00022725153
0.17458308	0.038348082	0.00073248183	0.00022725726
0.17478003	0.047019623	0.00090059091	0.00022725153
0.17497696	0.043992605	0.00084208947	0.00022725153
0.17517389	0.045922115	0.00087626016	0.00022725153
0.17537083	0.036343198	0.00069951976	0.00022723936
0.17556776	0.038774002	0.0007412078	0.00022723936
0.17576469	0.035022356	0.00067222357	0.00022723936
0.17596163	0.041853514	0.00080437353	0.00022725153
0.17615856	0.03562152	0.00068226637	0.00022725153
0.1763555	0.038332712	0.00073540345	0.00022725153
0.17655243	0.042316258	0.00081128278	0.00022724509
0.17674938	0.04470323	0.00086196285	0.00022723936
0.17694631	0.034120735	0.00065670518	0.00022723936
0.17714325	0.039655816	0.00076305721	0.00022725153
0.17734018	0.050319187	0.00097070751	0.00022723936
0.17753711	0.041279286	0.00079201249	0.00022723936
0.17773405	0.036438767	0.00070220558	0.00022723936
0.17793098	0.041132074	0.00079488807	0.00022723936
0.17812791	0.033020638	0.0006354514	0.00022723936
0.17832485	0.031590823	0.00060882984	0.00022723936
0.17852178	0.035378247	0.00068226294	0.00022724509
0.17871873	0.043790109	0.00084634626	0.00022723936
0.17891566	0.034236267	0.00065988244	0.00022723936
0.1791126	0.037778616	0.00073015911	0.00022722721
0.17930953	0.041525103	0.00080281403	0.00022723936
0.17950647	0.044730857	0.00086718088	0.00022723936
0.1797034	0.046502836	0.00090003101	0.00022723936
0.17990033	0.033949453	0.00065491715	0.00022723936
0.18009727	0.04486692	0.00087044644	0.00022722721
0.1802942	0.047709201	0.00092420087	0.00022722721
0.18049113	0.04668963	0.00090893812	0.00022723294
0.18068808	0.03524062	0.00068155286	0.00022722721
0.18088502	0.046987496	0.00091030647	0.00022722721
0.18108195	0.041158538	0.00079921685	0.00022722721
0.18127888	0.03686811	0.00071450061	0.00022722721
0.18147582	0.044656489	0.00086828979	0.00022722721
0.18167275	0.042867981	0.00083081331	0.00022722721
0.18186969	0.042145595	0.00082122011	0.00022722721
0.18206662	0.037576687	0.00073126011	0.00022722721
0.18226355	0.038228616	0.00073945755	0.00022721505
0.18246049	0.043728422	0.00085216953	0.00022723294
0.18265744	0.035891563	0.00069716736	0.00022721505
0.18285437	0.045734052	0.00089214317	0.00022722721
0.1830513	0.042708736	0.00083323807	0.00022722721
0.18324824	0.042666666	0.00082826568	0.00022721505
0.18344517	0.036126059	0.00070409238	0.00022721505
0.1836421	0.041794479	0.00081410009	0.00022721505
0.18383904	0.039230768	0.00076515035	0.00022721505
0.18403597	0.039584935	0.00077195693	0.00022721505
0.18423291	0.036167756	0.0007053928	0.00022721505
0.18442984	0.041069351	0.00080393342	0.00022722078
0.18462679	0.03642638	0.00070917862	0.00022721505
0.18482372	0.04704975	0.00091953826	0.00022721505
0.18502066	0.048039969	0.00093709462	0.00022721505
0.18521759	0.05143078	0.0010071211	0.00022721505
0.18541452	0.03718048	0.00072706793	0.00022721505
0.18561146	0.039722331	0.00077501807	0.00022721505
0.18580839	0.04009252	0.00078266696	0.00022721505
0.18600532	0.044909019	0.0008789291	0.00022720288
0.18620226	0.044237487	0.00086689321	0.00022721505
0.18639919	0.044926412	0.00087963813	0.00022722078
0.18659614	0.042248063	0.00082703837	0.00022720288
0.18679307	0.036271449	0.00071184553	0.00022720288
0.18699001	0.04136065	0.00080867525	0.00022720288
0.18718694	0.03461688	0.00067847641	0.00022720288
0.18738388	0.03763441	0.00073271396	0.00022720288
0.18758081	0.043154176	0.00085016841	0.00022721505
0.18777774	0.042751651	0.00083808933	0.00022720288
0.18797468	0.039719626	0.00077919534	0.00022720288
0.18817161	0.036243182	0.00071068009	0.00022719071
0.18836854	0.030572755	0.00059666351	0.00022720861
0.18856549	0.046420142	0.0009159086	0.00022719071
0.18876243	0.035422344	0.0006947284	0.00022720288
0.18895936	0.0460039	0.00090407458	0.00022720288
0.18915629	0.037905432	0.00074471021	0.00022719071
0.18935323	0.038656775	0.00075834891	0.00022719071
0.18955016	0.043938801	0.00086593704	0.00022720288
0.1897471	0.036921881	0.00072386209	0.00022719071
0.18994403	0.034428794	0.00067635806	0.00022720288
0.19014096	0.037022449	0.00073054736	0.00022719071
0.1903379	0.035033088	0.00068721391	0.00022719646
0.19053484	0.038991731	0.00076949986	0.00022719071
0.19073178	0.034267914	0.00067188597	0.00022719071
0.19092871	0.034225021	0.00067441043	0.00022719071
0.19112565	0.047035575	0.00093056797	0.00022719071
0.19132258	0.035074044	0.00068798935	0.00022719071
0.19151951	0.03308389	0.00065203558	0.00022719071
0.19171645	0.041633934	0.00082079164	0.00022719071
0.19191338	0.031902324	0.0006287478	0.00022717856
0.19211031	0.042745098	0.00084196462	0.00022719071
0.19230725	0.045151159	0.00089038536	0.00022719646
0.1925042	0.034934498	0.00069140701	0.00022719071
0.19270113	0.040912665	0.00080695917	0.00022719071
0.19289806	0.040567152	0.00080071727	0.00022719071
0.193095	0.035644341	0.0007013561	0.00022717856
0.19329193	0.034537517	0.00068330311	0.00022719071
0.19348887	0.041534811	0.00082162459	0.00022717856
0.1936858	0.040110108	0.00079102308	0.00022717856
0.19388273	0.033938438	0.00066985027	0.00022717856
0.19407967	0.03204114	0.00063295447	0.00022717856
0.1942766	0.043443602	0.00086305651	0.0002271843
0.19447355	0.030125195	0.00059189869	0.00022717856
0.19467048	0.037257232	0.00073733967	0.00022717856
0.19486742	0.037183546	0.00073506869	0.0002271664
0.19506435	0.036154151	0.00071637117	0.0002271664
0.19526128	0.033107299	0.00065687363	0.0002271664
0.19545822	0.027027028	0.00053043448	0.0002271664
0.19565515	0.030436523	0.00060466566	0.0002271664
0.19585209	0.037698414	0.00074623479	0.0002271664
0.19604902	0.029691212	0.00058671326	0.0002271664
0.19624595	0.036653388	0.00072689418	0.00022717213
0.1964429	0.031914894	0.00062834087	0.00022717856
0.19663984	0.030448718	0.00060502911	0.0002271664
0.19683677	0.030422758	0.00060058851	0.0002271664
0.1970337	0.039536741	0.00078561087	0.0002271664
0.19723064	0.032975763	0.00065219327	0.0002271664
0.19742757	0.033359811	0.00066040031	0.0002271664
0.1976245	0.032115616	0.00063926197	0.00022715423
0.19782144	0.030087095	0.00059428136	0.0002271664
0.19801837	0.037939299	0.00075348414	0.0002271664
0.19821531	0.03191065	0.00063264958	0.00022715998
0.19841225	0.026671974	0.0005278046	0.0002271664
0.19860919	0.040432345	0.00080423959	0.00022715423
0.19880612	0.034879111	0.00069003413	0.00022715423
0.19900306	0.040209088	0.00080126512	0.00022715423
0.19919999	0.042281613	0.00084002141	0.00022715423
0.19939692	0.041434262	0.00082259608	0.00022715423
0.19959386	0.040322579	0.00080498634	0.0002271664
0.19979079	0.042595543	0.00084546435	0.00022715423
0.19998772	0.028456913	0.00056533987	0.00022715423
0.20018466	0.036283892	0.00072031928	0.00022715998
0.20038161	0.032971453	0.00065624836	0.00022715423
0.20057854	0.030412165	0.00060415204	0.00022715423
0.20077547	0.040351577	0.00080183073	0.00022715423
0.20097241	0.042287555	0.00084414158	0.00022715423
0.20116934	0.037140574	0.00073767349	0.00022715423
0.20136628	0.029778672	0.00059277815	0.00022714208
0.20156321	0.035228182	0.00070005353	0.00022715423
0.20176014	0.02458686	0.00048898306	0.00022714208
0.20195708	0.040432345	0.00080415979	0.00022715423
0.20215401	0.033293221	0.00066222035	0.00022715998
0.20235096	0.033427306	0.00066651969	0.00022714208
0.20254789	0.048019208	0.00095595262	0.00022714208
0.20274483	0.045436107	0.00091050769	0.00022714208
0.20294176	0.044417769	0.00088404625	0.00022714208
0.20313869	0.041632984	0.00083256356	0.00022714208
0.20333563	0.046060607	0.00092146843	0.00022714208
0.20353256	0.047391478	0.00094128557	0.00022712992
0.2037295	0.038992688	0.00078070303	0.00022712992
0.20392643	0.040849019	0.00081274763	0.00022714208
0.20412336	0.041801948	0.00083747809	0.00022714782
0.20432031	0.049576785	0.00099047914	0.00022714208
0.20451725	0.04170008	0.00083068101	0.00022714208
0.20471418	0.051177904	0.0010270125	0.00022712992
0.20491111	0.049980007	0.00099495123	0.00022714208
0.20510805	0.059731815	0.0011994791	0.00022712992
0.20530498	0.052100163	0.0010419213	0.00022712992
0.20550191	0.062625453	0.0012499057	0.00022712992
0.20569885	0.063673466	0.0012815753	0.00022712992
0.20589578	0.068965517	0.0013759126	0.00022712992
0.20609272	0.077393077	0.0015572298	0.00022713565
0.20628966	0.059653364	0.0011926069	0.00022712992
0.2064866	0.062880322	0.0012616619	0.00022711777
0.20668353	0.060975611	0.0012247085	0.00022712992
0.20688047	0.052377116	0.0010465562	0.00022712992
0.2070774	0.04943274	0.0009906207	0.00022711777
0.20727433	0.055980667	0.0011189743	0.00022711777
0.20747127	0.044806518	0.00089984376	0.00022711777
0.2076682	0.049553208	0.00099390745	0.00022712992
0.20786513	0.050121263	0.0010028884	0.00022712992
0.20806207	0.042345278	0.00084979855	0.0002271235
0.20825902	0.04440856	0.00088713889	0.00022711777
0.20845595	0.04360228	0.00087592768	0.00022711777
0.20865288	0.049292929	0.00098608597	0.00022711777
0.20884982	0.040016335	0.00080388301	0.00022711777
0.20904675	0.041903988	0.00084086729	0.00022711777
0.20924369	0.033671401	0.0006735372	0.0002271056
0.20944062	0.034831915	0.00069638394	0.00022711777
0.20963755	0.036481556	0.00073009491	0.00022711777
0.20983449	0.02631579	0.00052888953	0.00022711777
0.21003142	0.039366882	0.000788367	0.00022711133
0.21022837	0.037866451	0.00075922953	0.00022711777
0.2104253	0.044824775	0.00089994271	0.00022711777
0.21062224	0.041515518	0.00082856778	0.0002271056
0.21081917	0.038730942	0.00078125508	0.0002271056
0.2110161	0.03117409	0.00062265707	0.0002271056
0.21121304	0.041123778	0.00082479668	0.0002271056
0.21140997	0.043212391	0.000867603	0.0002271056
0.2116069	0.040441178	0.00081188593	0.0002271056
0.21180384	0.042979944	0.00086424698	0.0002271056
0.21200077	0.041212123	0.00082328933	0.00022711133
0.21219772	0.033333335	0.00067132164	0.00022709343
0.21239465	0.036565326	0.00073618925	0.0002271056
0.21259159	0.040211212	0.00080596842	0.0002271056
0.21278852	0.036326531	0.00072917505	0.0002271056
0.21298546	0.042613637	0.0008537689	0.00022709343
0.21318239	0.030115511	0.00060736958	0.00022709343
0.21337932	0.033685066	0.00067424489	0.00022709343
0.21357626	0.027380466	0.00054910115	0.0002271056
0.21377319	0.031778786	0.00064075436	0.0002271056
0.21397012	0.033374034	0.00066881027	0.00022709918
0.21416707	0.030649776	0.00061513588	0.00022709343
0.21436401	0.035466775	0.00071173575	0.00022709343
0.21456094	0.030402629	0.00061150891	0.00022709343
0.21475787	0.034893267	0.00070225715	0.00022708128
0.21495481	0.032693092	0.00065585534	0.00022709343
0.21515174	0.043015156	0.00086594519	0.00022709343
0.21534868	0.023331968	0.00046725484	0.00022708128
0.21554561	0.033758748	0.00068030693	0.00022709343
0.21574254	0.035947714	0.00072189677	0.00022708128
0.21593948	0.034156378	0.00068834581	0.00022709918
0.21613643	0.034482758	0.00069373014	0.00022708128
0.21633336	0.039360393	0.0007920349	0.00022708128
0.21653029	0.036154479	0.00072851597	0.00022708128
0.21672723	0.032639738	0.00065456179	0.00022709343
0.21692416	0.036701031	0.00074048148	0.00022708128
0.21712109	0.034086242	0.00068582239	0.00022708128
0.21731803	0.025872691	0.00051971071	0.00022708128
0.21751496	0.036640592	0.00073865289	0.00022708128
0.2177119	0.026069246	0.00052160316	0.00022708128
0.21790883	0.027420025	0.000554242	0.00022708702
0.21810578	0.035539217	0.00071372662	0.00022708128
0.21830271	0.026446281	0.00053309376	0.00022708128
0.21849965	0.033744857	0.00067957927	0.00022706912
0.21869658	0.03150573	0.00063229579	0.00022708128
0.21889351	0.035240464	0.00071316602	0.00022706912
0.21909045	0.03359279	0.00067539769	0.00022706912
0.21928738	0.028064383	0.00056554837	0.00022706912
0.21948431	0.028465347	0.00057334179	0.00022706912
0.21968125	0.036991369	0.00074498839	0.00022706912
0.21987818	0.03301692	0.00066562527	0.00022707487
0.22007513	0.033974621	0.00068255648	0.00022706912
0.22027206	0.036499377	0.0007386771	0.00022706912
0.220469	0.029556651	0.00059398182	0.00022706912
0.22066593	0.028145695	0.0005680084	0.00022705697
0.22086287	0.026759984	0.00053849467	0.00022705697
0.2210598	0.032962505	0.00066429627	0.00022705697
0.22125673	0.032271411	0.00065167825	0.00022705697
0.22145367	0.039669421	0.00080164638	0.00022705697
0.2216506	0.030165289	0.00060829631	0.00022706912
0.22184753	0.028806584	0.00057982048	0.00022707487
0.22204448	0.038589213	0.00078098173	0.00022705697
0.22224142	0.036716171	0.00074093981	0.00022705697
0.22243835	0.043298971	0.00087445043	0.00022705697
0.22263528	0.042703152	0.0008647099	0.00022705697
0.22283222	0.034539472	0.00069594244	0.00022704482
0.22302915	0.037052456	0.00075124006	0.00022705697
0.22322609	0.034696408	0.00070049032	0.00022704482
0.22342302	0.0324702	0.0006537087	0.00022704482
0.22361995	0.036529679	0.00073950051	0.00022705697
0.22381689	0.034269199	0.00069196307	0.0002270627
0.22401384	0.036743216	0.00074609264	0.00022704482
0.22421077	0.035802469	0.00072176929	0.00022704482
0.2244077	0.035610765	0.00072026881	0.00022704482
0.22460464	0.048272993	0.00098011491	0.00022704482
0.22480157	0.043531828	0.00087747927	0.00022704482
0.2249985	0.043186583	0.0008794372	0.00022704482
0.22519544	0.032786883	0.00065920263	0.00022704482
0.22539237	0.037837837	0.00076681067	0.00022704482
0.22558931	0.035131745	0.00071371708	0.00022704482
0.22578624	0.031875767	0.0006397292	0.00022703838
0.22598319	0.030820491	0.00062427676	0.00022703265
0.22618012	0.033071518	0.0006672772	0.00022704482
0.22637706	0.028882377	0.00058586395	0.00022704482
0.22657399	0.035640281	0.00072076957	0.00022703265
0.22677092	0.03233831	0.00065337872	0.00022703265
0.22696786	0.027777778	0.0005609708	0.00022703265
0.22716479	0.03809524	0.00077002612	0.00022704482
0.22736172	0.029694688	0.00060226431	0.00022703265
0.22755866	0.02768595	0.00055793807	0.00022703265
0.22775559	0.035520267	0.00072076666	0.00022703265
0.22795253	0.039386403	0.00079656113	0.00022703838
0.22814947	0.034468438	0.00069739105	0.00022703265
0.22834641	0.038557213	0.00078001048	0.00022703265
0.22854334	0.026173661	0.00052880676	0.0002270205
0.22874027	0.037410676	0.00076157716	0.00022703265
0.22893721	0.036731325	0.00074139866	0.00022703265
0.22913414	0.03702163	0.00074991869	0.0002270205
0.22933108	0.02616279	0.00052820618	0.0002270205
0.22952801	0.030846186	0.00062447781	0.0002270205
0.22972494	0.030403998	0.00061576691	0.0002270205
0.22992188	0.029436152	0.00059465476	0.00022703838
0.23011883	0.035080303	0.00071615097	0.0002270205
0.23031576	0.028488852	0.00057442003	0.0002270205
0.23051269	0.032875571	0.00066609855	0.0002270205
0.23070963	0.032083333	0.00064965442	0.0002270205
0.23090656	0.027777778	0.00056058937	0.00022700834
0.23110349	0.026006712	0.00052759709	0.00022700834
0.23130043	0.029203171	0.00059146876	0.0002270205
0.23149736	0.03826955	0.00077550375	0.0002270205
0.2316943	0.029657478	0.00060064706	0.0002270205
0.23189123	0.02822748	0.00057010981	0.00022701408
0.23208818	0.033109806	0.00067279331	0.00022700834
0.23228511	0.022064947	0.00044555083	0.00022700834
0.23248205	0.02966987	0.00060187333	0.00022700834
0.23267898	0.030582322	0.00062131131	0.00022700834
0.23287591	0.024937656	0.00050325488	0.00022700834
0.23307285	0.025930572	0.00052583858	0.00022700834
0.23326978	0.023352794	0.00047209286	0.00022700834
0.23346671	0.02378965	0.00048137477	0.00022700834
0.23366365	0.03490328	0.00071094558	0.00022700834
0.23386058	0.039649416	0.00080527732	0.00022701408
0.23405753	0.026837325	0.00054122158	0.00022699618
0.23425446	0.038283549	0.00078059227	0.00022700834
0.2344514	0.037751678	0.00076865422	0.00022699618
0.23464833	0.037609696	0.00076393923	0.00022699618
0.23484527	0.033862878	0.00068727811	0.00022700834
0.2350422	0.038879599	0.00078981498	0.00022700834
0.23523913	0.029819403	0.00060557364	0.00022699618
0.23543607	0.034970857	0.00070881925	0.00022699618
0.235633	0.036371239	0.00073913811	0.00022699618
0.23582993	0.043988269	0.00089541759	0.00022700192
0.23602688	0.03663158	0.00074688945	0.00022698403
0.23622382	0.035848271	0.00072718866	0.00022699618
0.23642075	0.036310516	0.00073728769	0.00022699618
0.23661768	0.043587595	0.00088805438	0.00022698403
0.23681462	0.039983165	0.00081574207	0.00022698403
0.23701155	0.043877978	0.00089205155	0.00022699618
0.23720849	0.050543025	0.001028084	0.00022698403
0.23740542	0.042821158	0.00087214878	0.00022699618
0.23760235	0.036897276	0.00075049588	0.00022698403
0.23779929	0.0398992	0.00081280887	0.00022698977
0.23799624	0.035058431	0.00071148382	0.00022698403
0.23819317	0.037410676	0.00076225976	0.00022698403
0.2383901	0.036943745	0.0007521112	0.00022698403
0.23858704	0.040217847	0.00081806036	0.00022698403
0.23878397	0.037720032	0.00076759188	0.00022698403
0.2389809	0.037332214	0.0007596683	0.00022697187
0.23917784	0.03236654	0.0006588407	0.00022697187
0.23937477	0.0379107	0.00077274296	0.00022698403
0.23957171	0.031407036	0.00063773093	0.00022697187
0.23976864	0.02585488	0.00052339886	0.00022697762
0.23996559	0.028631579	0.00058303837	0.00022697187
0.24016252	0.044839256	0.00091747643	0.00022697187
0.24035946	0.034512144	0.00070703216	0.00022697187
0.24055639	0.032967035	0.00067286519	0.00022697187
0.24075332	0.031942077	0.00065433513	0.00022697187
0.24095026	0.034320034	0.00070609519	0.00022697187
0.24114719	0.028510638	0.00058318774	0.00022697187
0.24134412	0.035117771	0.00072104181	0.00022697187
0.24154106	0.040552199	0.00083701184	0.00022697187
0.24173799	0.044454034	0.00091800262	0.00022696547
0.24193494	0.037326388	0.00077167823	0.00022697187
0.24213187	0.04001721	0.00082435057	0.00022695972
0.24232881	0.031919546	0.00066124671	0.00022697187
0.24252574	0.037603848	0.00078104954	0.00022695972
0.24272268	0.031441048	0.00065130711	0.00022695972
0.24291961	0.027741084	0.00057701999	0.00022695972
0.24311654	0.031331591	0.00064829009	0.00022695972
0.24331348	0.025766326	0.00053784676	0.00022695972
0.24351041	0.02910053	0.00060569163	0.00022695972
0.24370734	0.029049296	0.00060409255	0.00022696547
0.24390429	0.023131672	0.00048235696	0.00022695972
0.24410123	0.021914132	0.00045819828	0.00022695972
0.24429816	0.031083481	0.00065005111	0.00022694757
0.24449509	0.027866606	0.000590034	0.00022694757
0.24469203	0.024884792	0.00052879774	0.00022695972
0.24488896	0.030459231	0.00065363338	0.00022694757
0.2450859	0.033380348	0.00071738701	0.00022694757
0.24528283	0.037387602	0.00080653914	0.00022694757
0.24547976	0.023366714	0.00050451019	0.00022694757
0.2456767	0.041867182	0.00091287802	0.0002269533
0.24587364	0.035594035	0.00077495811	0.00022694757
0.24607058	0.031568721	0.00069000816	0.0002269354
0.24626751	0.028100776	0.00061202701	0.00022694757
0.24646445	0.026587889	0.0005840112	0.00022694757
0.24666138	0.033906635	0.00074538909	0.00022694757
0.24685831	0.028120374	0.00061807345	0.0002269354
0.24705525	0.02980626	0.00065856456	0.0002269354
0.24725218	0.025461808	0.00056278898	0.0002269354
0.24744911	0.023629965	0.00052406354	0.00022694757
0.24764605	0.033483259	0.0007425957	0.00022694115
0.247843	0.029707955	0.00066015363	0.0002269354
0.24803993	0.017382413	0.00038696063	0.0002269354
0.24823686	0.029728344	0.00066576875	0.0002269354
0.2484338	0.029022403	0.00064825884	0.00022692325
0.24863073	0.031893004	0.00071672606	0.0002269354
0.24882767	0.029835392	0.00067038502	0.00022692325
0.2490246	0.034143817	0.0007701724	0.00022692325
0.24922153	0.029780565	0.00067404221	0.00022692325
0.24941847	0.028541775	0.000643985	0.00022692325
0.2496154	0.030574592	0.00069545733	0.000226929
0.24981235	0.027455121	0.00062375085	0.00022692965
0.25000927	0.028720627	0.00064939074	0.00022692325
0.2502062	0.027733333	0.00063421554	0.0002269354
0.25040314	0.033368643	0.00076008728	0.0002269111
0.25060007	0.034613304	0.00079787185	0.0002269226
0.25079703	0.02991453	0.00068404543	0.0002269111
0.25099397	0.034390114	0.00078977266	0.0002269111
0.2511909	0.025501899	0.00058783806	0.0002269111
0.25138783	0.025848143	0.00059264863	0.0002269111
0.25158477	0.033787467	0.00078153796	0.0002269111
0.2517817	0.028384279	0.00065643142	0.0002269111
0.25197864	0.030136986	0.00069873146	0.0002269111
0.25217557	0.033795014	0.00078782899	0.0002269111
0.2523725	0.034577388	0.00080279767	0.0002269111
0.25256944	0.023902168	0.00055617344	0.0002269111
0.25276637	0.024986118	0.00058175955	0.0002269111
0.2529633	0.035175879	0.00082225335	0.0002268868
0.25316024	0.029842343	0.00070084858	0.0002269111
0.25335717	0.023877203	0.00056265388	0.0002269111
0.25355411	0.029291155	0.0007017504	0.0002269111
0.25375104	0.036101084	0.00087764207	0.0002269111
0.25394797	0.027173912	0.00065949914	0.0002268868
0.25414491	0.032555282	0.00079799857	0.0002269111
0.25434184	0.034788109	0.00086515077	0.0002269111
0.25453877	0.0234375	0.00058937934	0.0002269226
0.25473574	0.023505708	0.00060008402	0.0002268868
0.25493267	0.036784742	0.00094780291	0.0002269111
0.25512961	0.029207231	0.00075948314	0.0002269111
0.25532654	0.030518098	0.00080201507	0.0002269111
0.25552347	0.032774944	0.00087052333	0.0002268868
0.25572041	0.025	0.00067721098	0.0002269111
0.25591734	0.024311183	0.00067757431	0.0002269111
0.25611427	0.025795357	0.00074229436	0.0002268868
0.25631121	0.04109589	0.0012248694	0.0002268868
0.25650814	0.035815269	0.0010785155	0.0002268868
0.25670508	0.04162633	0.0012777759	0.0002268868
0.25690201	0.044397462	0.0014228032	0.0002268868
0.25709894	0.037037037	0.0012143983	0.0002268868
0.25729588	0.034238487	0.0011552445	0.0002268868
0.25749281	0.043165468	0.0014699874	0.0002268868
0.25768974	0.040251572	0.0014031403	0.0002268868
0.25788668	0.033635188	0.0011833906	0.0002268868
0.25808361	0.024032043	0.00085114624	0.0002268868
0.25828055	0.019151846	0.00067170337	0.0002268868
0.25847748	0.024320457	0.00089305773	0.00022689829
0.25867444	0.021834061	0.00080536149	0.00022686248
0.25887138	0.016819572	0.00062756974	0.00022686248
0.25906831	0.055555556	0.0021484322	0.00022686248
0.25926524	0.025356578	0.00097406702	0.0002268868
0.25946218	0.033444814	0.0013235717	0.00022686248
0.25965911	0.042444821	0.001706433	0.0002268868
0.25985605	0.029462738	0.001186574	0.0002268868
0.26005298	0.022569444	0.00090428616	0.00022686248
0.26024991	0.03846154	0.0015691514	0.00022686248
0.26044685	0.025	0.0010133099	0.0002268868
0.26064378	0.028520498	0.0011571752	0.00022686248
0.26084071	0.034172662	0.0013910661	0.00022686248
0.26103765	0.022099448	0.00089496392	0.00022686248
0.26123458	0.033333335	0.0013861663	0.00022686248
0.26143152	0.03018868	0.0012602372	0.0002268868
0.26162845	0.022181146	0.00091388769	0.00022686248
0.26182538	0.011472275	0.00045837794	0.00022686248
0.26202232	0.025440313	0.0010683555	0.00022686248
0.26221925	0.023809524	0.0010164182	0.00022686248
0.26241618	0.021032505	0.00087772688	0.00022684968
0.26261315	0.017857144	0.00075067463	0.00022683818
0.26281008	0.024390243	0.0010538556	0.00022686248
0.26300701	0.01026694	0.00041655073	0.00022686248
0.26320395	0.0060362173	0.00022129847	0.00022683818
0.26340088	0.025369979	0.0011180335	0.00022686248
0.26359782	0.039748956	0.0017610483	0.00022683818
0.26379475	0.044871796	0.0020215469	0.00022686248
0.26399168	0.025641026	0.0011360113	0.00022683818
0.26418862	0.047826085	0.0021715437	0.00022683818
0.26438555	0.031319909	0.0014290938	0.00022683818
0.26458248	0.038901601	0.0018074228	0.00022683818
0.26477942	0.053811658	0.0024972076	0.00022683818
0.26497635	0.032634031	0.0015200453	0.00022686248
0.26517329	0.039627038	0.0018582548	0.00022683818
0.26537022	0.053789731	0.0025961245	0.00022683818
0.26556715	0.03846154	0.0018127529	0.00022683818
0.26576409	0.037128713	0.0017867993	0.00022683818
0.26596102	0.04040404	0.0019601746	0.00022683818
0.26615795	0.041450776	0.0020454456	0.00022683818
0.26635489	0.028132992	0.0013582737	0.00022684968
0.26655185	0.037135277	0.001845442	0.00022681388
0.26674879	0.024657534	0.001218492	0.00022683818
0.26694572	0.035135135	0.001757306	0.00022683818
0.26714265	0.038356163	0.0019372788	0.00022681388
0.26733959	0.01977401	0.00097439275	0.00022681388
0.26753652	0.02	0.00099116028	0.00022681388
0.26773345	0.024169184	0.0012445406	0.00022683818
0.26793039	0.020895522	0.0010585383	0.00022683818
0.26812732	0.029585799	0.0015118534	0.00022683818
0.26832426	0.0125	0.00060610141	0.00022683818
0.26852119	0.012698413	0.00062060496	0.00022683818
0.26871812	0.022508038	0.0011835413	0.00022683818
0.26891506	0.03215434	0.001732527	0.00022681388
0.26911199	0.033670034	0.0018566026	0.00022683818
0.26930892	0.023489933	0.0012619151	0.00022683818
0.26950586	0.0069204154	0.00028835065	0.00022683818
0.26970279	0.0034364262	0	0.00022681388
0.26989973	0.021739131	0.0011966997	0.00022681388
0.27009666	0.018726591	0.0010269822	0.00022681388
0.27029359	0.0038167939	0	0.00022684968
0.27049056	0	0	0.00022681388
0.27068749	0.0038910506	0	0.00022681388
0.27088442	0.012048192	0.00062466972	0.00022681388
0.27108136	0.020920502	0.0012129102	0.00022681388
0.27127829	0.037815128	0.0023158751	0.00022681388
0.27147523	0.035460994	0.002680599	0.00022681388
0.27167216	0	0	0.00022681388
0.27186909	0	0	0.00022681388
0.27206603	0	0	0.00022681388
0.27226296	0.16666667	0	0.00022681388
