#   DataFileName=PAL30_90C_WAXS_08172017.tif
#   DataFileType=.tif
#   
#   DataFilePath=E:DATA:PAL30_08262017:
#   
#   Processed on=Wed, Jan 16, 2019,2:41:54 AM
#   Units=Arbitrary
#   SampleThickness=1
#   SampleTransmission=1
#   CorrectionFactor=1
#   SampleMeasurementTime=1
#   EmptyMeasurementTime=1
#   BackgroundMeasTime=1
#   SampleI0=1
#   EmptyI0=1
#   Nika_SampleToDetectorDistacne=1552.1
#   Nika_Wavelength=1.54
#   Nika_XrayEnergy=8.0509
#   Nika_PixelSizeX=0.075
#   Nika_PixelSizeY=0.075
#   Nika_HorizontalTilt=0
#   Nika_VerticalTilt=0
#   Nika_BeamCenterX=1540.3
#   Nika_BeamCenterY=830.17
#   Nika_BeamSizeX=0
#   Nika_BeamCenterY=830.17
#   CalibrationFormula=1*((Sa2D))
#   CurrentMaskFileName=PAL30_30C_WAXS_mask.hdf
#   QvectorMaxNumPnts=1
#   QvectorNumberPoints=1383
#   CircularAverage=1
#   PolarizationCorrection=None
#   UncertainityCalculationMethod=OldNikaMethod

0.0060065244	13	9.1923885	0.00022756745
0.00620346	6.7600002	1.345065	0.00022756765
0.0064003952	4.5438595	0.5993225	0.00022756765
0.0065973303	5.4124999	0.60395586	0.00022756765
0.0067942655	7.4591837	0.74854857	0.00022756765
0.0069912006	10.028037	0.94860661	0.00022756745
0.0071881362	12.713115	1.1228541	0.00022756727
0.0073850714	13.870229	1.1837572	0.00022756727
0.0075820065	14.344828	1.1683918	0.00022756727
0.0077789417	13.435374	1.0879641	0.00022756745
0.0079758773	12.012658	0.93927938	0.00022756746
0.0081728119	10.88957	0.83943254	0.00022756707
0.0083697475	9.3202248	0.68772715	0.00022756671
0.0085666822	7.7979274	0.55280966	0.00022756783
0.0087636178	8.2512817	0.58326077	0.00022756783
0.0089605534	6.8957348	0.46842799	0.00022756746
0.0091574881	6.0305676	0.39356261	0.00022756707
0.0093544237	5.3639998	0.33560124	0.00022756671
0.0095513584	4.7110267	0.28699347	0.00022756707
0.009748294	4.1360292	0.24819435	0.00022756707
0.0099452296	4.0180507	0.23864537	0.00022756595
0.010142164	3.7589929	0.22272082	0.00022756707
0.0103391	3.4410775	0.19733356	0.00022756671
0.010536035	3.1559322	0.18203337	0.00022756707
0.01073297	2.6677632	0.15148985	0.00022756783
0.010929906	2.5498393	0.14325623	0.00022756746
0.01112684	2.5143769	0.1406707	0.00022756783
0.011323776	2.1656628	0.11795781	0.00022756746
0.011520711	2.1615853	0.11831252	0.00022756707
0.011717646	2.0295858	0.10926048	0.00022756707
0.011914582	1.9064327	0.1023295	0.00022756746
0.012111517	1.8637681	0.09958639	0.00022756783
0.012308452	1.5027473	0.078213178	0.00022756671
0.012505387	1.6214689	0.085603021	0.00022756783
0.012702323	1.468254	0.074940152	0.00022756783
0.012899258	1.383378	0.071145453	0.00022756671
0.013096193	1.3560209	0.068912424	0.00022756707
0.013293128	1.2352941	0.062029876	0.00022756671
0.013490063	1.2628866	0.063725166	0.00022756707
0.013686999	1.0882353	0.053520709	0.00022756707
0.013883934	1.0608273	0.05202768	0.00022756671
0.014080869	1.0287081	0.049989328	0.00022756707
0.014277805	0.92941177	0.04484906	0.00022756671
0.014474739	0.95744681	0.046293732	0.0002275663
0.014671675	0.85101581	0.040229723	0.00022756707
0.014868611	0.89772725	0.042485058	0.00022756671
0.015065545	0.84175825	0.039196502	0.0002275663
0.015262481	0.76824033	0.035395943	0.00022756671
0.015459416	0.72747254	0.033914201	0.00022756595
0.01565635	0.66098082	0.030343924	0.00022756707
0.015853286	0.6687898	0.030682661	0.00022756554
0.016050221	0.65773195	0.029722324	0.00022756707
0.016247157	0.66396761	0.029741388	0.00022756707
0.016444093	0.61400002	0.027329797	0.00022756483
0.016641026	0.61646587	0.027499136	0.00022756707
0.016837962	0.52304608	0.023285162	0.00022756707
0.017034898	0.52140075	0.022863463	0.00022756554
0.017231833	0.49713194	0.021629415	0.00022756554
0.017428769	0.51233399	0.022228848	0.00022756483
0.017625703	0.46168223	0.019862516	0.00022756554
0.017822638	0.47672254	0.020492382	0.00022756554
0.018019574	0.44669119	0.019076772	0.00022756554
0.018216509	0.47445256	0.020170562	0.00022756554
0.018413445	0.4293381	0.01808613	0.00022756483
0.018610379	0.45406359	0.01902014	0.00022756554
0.018807314	0.36823735	0.015311292	0.00022756554
0.01900425	0.41421145	0.017173849	0.00022756554
0.019201186	0.34615386	0.014397132	0.00022756554
0.019398121	0.31323284	0.012770017	0.00022756483
0.019595055	0.33559322	0.013767078	0.00022756554
0.019791991	0.33884299	0.013717103	0.00022756554
0.019988926	0.35206613	0.014245735	0.00022756554
0.020185862	0.34150326	0.013758535	0.00022756554
0.020382797	0.25796178	0.010259913	0.00022756483
0.020579731	0.26860842	0.010748821	0.00022756403
0.020776667	0.31034482	0.012244133	0.00022756403
0.020973602	0.29890454	0.011774396	0.00022756554
0.021170538	0.27656251	0.010891117	0.00022756403
0.021367474	0.280543	0.01085845	0.0002275633
0.021564407	0.26160991	0.010255517	0.00022756403
0.021761343	0.32585949	0.012543249	0.00022756403
0.021958278	0.27601811	0.010677819	0.00022756403
0.022155214	0.28340676	0.010814187	0.00022756403
0.02235215	0.20784883	0.0078908587	0.0002275633
0.022549083	0.20851688	0.0079580965	0.00022756403
0.022746019	0.26950353	0.010111896	0.00022756403
0.022942955	0.20803443	0.0078428406	0.00022756403
0.02313989	0.21640736	0.0081039639	0.00022756403
0.023336826	0.22036262	0.0081949923	0.0002275633
0.02353376	0.22081575	0.0082521969	0.00022756403
0.023730695	0.22116689	0.0081174197	0.00022756403
0.023927631	0.20413794	0.0075467899	0.0002275625
0.024124566	0.20911528	0.0076273154	0.00022756403
0.024321502	0.20107238	0.0073260111	0.00022756179
0.024518436	0.21744967	0.0079370812	0.0002275625
0.024715371	0.19235836	0.0069568795	0.0002275625
0.024912307	0.18097754	0.0065481612	0.0002275625
0.025109243	0.24296676	0.0086621856	0.0002275625
0.025306178	0.19793014	0.0070924014	0.00022756179
0.025503112	0.21583652	0.007686751	0.0002275625
0.025700048	0.16391359	0.0058129546	0.0002275625
0.025896983	0.15903307	0.0056490055	0.0002275625
0.026093919	0.1773399	0.0061968407	0.00022756097
0.026290854	0.16873449	0.0059213308	0.00022756179
0.026487788	0.18902439	0.0065751499	0.0002275625
0.026684724	0.16870415	0.0058711367	0.00022756097
0.026881659	0.181486	0.0063072895	0.0002275625
0.027078595	0.16706444	0.0057465346	0.00022756097
0.027275531	0.1576414	0.0054470459	0.00022756179
0.027472464	0.18277067	0.006216228	0.00022756097
0.0276694	0.17021276	0.0058305943	0.00022756097
0.027866336	0.16705337	0.0056700539	0.00022756097
0.028063271	0.11627907	0.0039435145	0.00022756097
0.028260207	0.15151516	0.0051495619	0.00022756026
0.028457141	0.16722783	0.0055848742	0.00022756097
0.028654076	0.1475596	0.0049482635	0.00022756097
0.028851012	0.14876957	0.0049570897	0.00022756097
0.029047947	0.14669652	0.0048866551	0.00022756097
0.029244883	0.15185602	0.0050739571	0.00022756026
0.029441817	0.15795207	0.0051930384	0.00022756097
0.029638752	0.15164836	0.0050062966	0.00022755946
0.029835688	0.13268608	0.0043405476	0.00022756097
0.030032624	0.15483871	0.0050575039	0.00022755946
0.030229559	0.15584415	0.0051086023	0.00022755875
0.030426493	0.14680851	0.0047689779	0.00022755946
0.030623429	0.13205537	0.0042920862	0.00022755946
0.030820364	0.14654283	0.0046908716	0.00022755946
0.0310173	0.12407991	0.0040065567	0.00022755946
0.031214235	0.11721992	0.0037588247	0.00022755946
0.031411171	0.137577	0.0043913154	0.00022755875
0.031608105	0.13960703	0.0044721458	0.00022755571
0.031805038	0.14155713	0.0044855746	0.00022756017
0.032001976	0.13549039	0.0042927223	0.00022755875
0.03219891	0.15075377	0.0047626677	0.00022756017
0.032395847	0.13186814	0.0041515674	0.00022755875
0.032592781	0.13406157	0.0042084926	0.00022755875
0.032789715	0.13894325	0.0043306313	0.00022756017
0.032986652	0.12807882	0.0040052175	0.00022755571
0.033183586	0.13047712	0.0040557007	0.00022755713
0.033380523	0.10597303	0.0032747483	0.00022755875
0.033577457	0.10500963	0.0032431658	0.00022755571
0.033774391	0.10867493	0.0033396282	0.00022755713
0.033971328	0.11164122	0.0034339598	0.00022755571
0.034168262	0.1333964	0.0040885424	0.00022756017
0.0343652	0.1206409	0.0036891364	0.00022755571
0.034562133	0.10770659	0.0032668582	0.00022755571
0.034759067	0.11595547	0.0035182536	0.00022756017
0.034956004	0.14166667	0.0042957012	0.00022755571
0.035152938	0.12968037	0.0039059122	0.00022755713
0.035349876	0.12682481	0.0038170293	0.00022755571
0.035546809	0.11887477	0.0035651068	0.00022755571
0.035743743	0.11050725	0.0033116988	0.00022755713
0.035940681	0.10313901	0.0030755172	0.00022755571
0.036137614	0.10124334	0.0030031246	0.00022755713
0.036334552	0.098579042	0.0029231531	0.00022755266
0.036531486	0.10758378	0.0031811171	0.00022755266
0.036728419	0.11552028	0.0034172377	0.00022755713
0.036925357	0.10608695	0.0031145182	0.00022755571
0.037122291	0.12597741	0.0037004431	0.00022755713
0.037319228	0.096187174	0.0028189998	0.00022755571
0.037516162	0.11620017	0.0033726662	0.00022755266
0.037713096	0.12425021	0.0036254497	0.00022755713
0.037910033	0.10391822	0.0030207054	0.00022755266
0.038106967	0.090754874	0.0026302084	0.00022755409
0.038303904	0.10970464	0.0031744249	0.00022755266
0.038500838	0.09151414	0.0026266812	0.00022755266
0.038697772	0.10909091	0.0031235442	0.00022755409
0.038894709	0.090231791	0.0025837242	0.00022755266
0.039091643	0.10008271	0.00286625	0.00022755409
0.03928858	0.1147541	0.0032739781	0.00022755266
0.039485514	0.1056052	0.0029975807	0.00022755266
0.039682448	0.11697806	0.0033220528	0.00022755409
0.039879385	0.10602409	0.0029937632	0.00022755266
0.040076319	0.1144	0.0032247242	0.00022755409
0.040273257	0.11476725	0.0032393113	0.00022754962
0.04047019	0.1026253	0.0028839705	0.00022754962
0.040667124	0.10007942	0.0028093685	0.00022755409
0.040864062	0.092259578	0.0025692335	0.00022755266
0.041060995	0.092534989	0.0025688778	0.00022755409
0.041257933	0.091263652	0.0025380447	0.00022754962
0.041454867	0.10116731	0.0028120892	0.00022755266
0.0416518	0.10038911	0.0027900306	0.00022755409
0.041848738	0.11450382	0.0031534145	0.00022754962
0.042045671	0.10646388	0.0029258947	0.00022754801
0.042242609	0.097338401	0.0026735994	0.00022754657
0.042439543	0.1055429	0.0028976907	0.00022754353
0.042636476	0.090157777	0.0024614974	0.00022754801
0.042833414	0.11972892	0.0032745486	0.00022754657
0.043030348	0.10455564	0.0028459532	0.00022754801
0.043227285	0.089364842	0.0024182783	0.00022754353
0.043424219	0.095062636	0.0025705867	0.00022754353
0.043621153	0.080882356	0.0021834953	0.00022754801
0.04381809	0.088709675	0.0023918916	0.00022754353
0.044015024	0.087783471	0.0023643847	0.00022754495
0.044211961	0.082608692	0.0022144353	0.00022754353
0.044408895	0.10647482	0.002845797	0.00022754353
0.044605829	0.089798853	0.0023969933	0.00022754495
0.044802766	0.085365854	0.0022769442	0.00022754353
0.0449997	0.094932191	0.0025268933	0.00022754495
0.045196638	0.093286216	0.0024699613	0.00022754353
0.045393571	0.10851064	0.0028807099	0.00022754353
0.045590505	0.11913104	0.0031441452	0.00022754495
0.045787442	0.11360449	0.002998888	0.00022754048
0.045984376	0.096527778	0.0025339897	0.00022754191
0.046181314	0.092297018	0.0024221125	0.00022754353
0.046378247	0.10773481	0.0028220429	0.00022754048
0.046575181	0.10428177	0.0027305081	0.00022754191
0.046772119	0.10555175	0.0027545013	0.00022754353
0.046969052	0.093941458	0.002441789	0.00022754495
0.04716599	0.098841175	0.0025714664	0.00022754048
0.047362924	0.092991911	0.0024040889	0.00022754048
0.047559857	0.087131366	0.0022471361	0.00022754495
0.047756795	0.080591001	0.0020784603	0.00022754048
0.047953729	0.097920857	0.002526162	0.00022754495
0.048150666	0.075646982	0.0019395278	0.00022754048
0.0483476	0.091572657	0.0023494989	0.00022754048
0.048544534	0.089718401	0.0022869511	0.00022754191
0.048741471	0.093605801	0.0023933488	0.00022753744
0.048938405	0.074918568	0.0019017349	0.00022754191
0.049135342	0.077981651	0.0019870808	0.00022754048
0.049332276	0.090084255	0.0022829415	0.00022753744
0.04952921	0.089262612	0.0022612589	0.00022753887
0.049726147	0.072211474	0.0018239092	0.00022753744
0.049923081	0.086763777	0.0021734885	0.00022754191
0.050120018	0.0971867	0.0024474876	0.00022753744
0.050316952	0.087651953	0.0022069549	0.00022753744
0.050513886	0.0984127	0.0024684966	0.00022753887
0.050710823	0.083069116	0.0020822748	0.00022753744
0.050907757	0.10180012	0.0025262157	0.00022753887
0.051104695	0.09431605	0.0023468621	0.00022753744
0.051301628	0.099250935	0.0024701252	0.00022753744
0.051498562	0.0886392	0.0022050468	0.00022753887
0.0516955	0.078540504	0.0019439925	0.00022753744
0.051892433	0.083231337	0.0020485977	0.00022753887
0.052089371	0.072222225	0.0017851342	0.0002275344
0.052286305	0.078931391	0.0019352435	0.00022753744
0.052483238	0.08510638	0.00208675	0.00022753583
0.052680176	0.077811547	0.0019087449	0.0002275344
0.052877109	0.078419454	0.0019239936	0.00022753887
0.053074047	0.086799279	0.0021211773	0.0002275344
0.053270981	0.087761194	0.0021342901	0.00022753744
0.053467914	0.082935564	0.0020161862	0.00022753887
0.053664852	0.079365082	0.0019502847	0.0002275344
0.053861786	0.092879258	0.0023010748	0.00022753583
0.054058723	0.093399748	0.0023209692	0.0002275344
0.054255657	0.08658009	0.0021423015	0.0002275344
0.054452591	0.084427767	0.002100569	0.00022753583
0.054649528	0.086712413	0.0021552709	0.0002275344
0.054846462	0.082131661	0.0020466365	0.00022753583
0.055043399	0.072463766	0.001808878	0.00022753136
0.055240333	0.064434618	0.001610634	0.0002275344
0.055437267	0.077504724	0.0019353803	0.00022753583
0.055634204	0.075093865	0.0018690341	0.00022753136
0.055831138	0.088030398	0.0022052978	0.00022753279
0.056028076	0.081812464	0.0020420623	0.00022753136
0.056225009	0.075853348	0.0018969334	0.00022753136
0.056421943	0.084875561	0.0021340423	0.00022753279
0.05661888	0.070395976	0.0017552626	0.00022753136
0.056815814	0.097423002	0.0024330823	0.00022753279
0.057012752	0.079746835	0.0019970003	0.00022753136
0.057209685	0.082702018	0.0020662919	0.00022752832
0.057406619	0.06881313	0.0017192475	0.00022753279
0.057603557	0.09222994	0.0023079249	0.00022753136
0.05780049	0.094303794	0.0023621309	0.00022753279
0.057997428	0.070979901	0.001769517	0.00022752832
0.058194362	0.066919193	0.0016711263	0.00022752832
0.058391295	0.07770057	0.0019409035	0.00022752974
0.058588233	0.067669176	0.0016834487	0.00022752832
0.058785167	0.098101266	0.0024579216	0.00022752974
0.058982104	0.090509117	0.0022580891	0.00022752832
0.059179038	0.071608037	0.0017845888	0.00022752832
0.059375972	0.082441784	0.0020573935	0.00022752974
0.059572909	0.085839599	0.0021382717	0.00022752528
0.059769843	0.073724009	0.0018409786	0.00022752974
0.05996678	0.079925649	0.0019789801	0.00022752528
0.060163714	0.07120353	0.0017771836	0.00022752528
0.060360648	0.07668329	0.00190456	0.00022752974
0.060557585	0.065122105	0.0016190523	0.00022752528
0.060754519	0.075917862	0.001883164	0.0002275267
0.060951456	0.082397006	0.0020483795	0.00022752528
0.06114839	0.069072805	0.0017137008	0.00022752528
0.061345324	0.066002488	0.0016370466	0.0002275267
0.061542261	0.06273292	0.0015535476	0.00022752528
0.061739195	0.071517415	0.0017731444	0.0002275267
0.061936133	0.08369498	0.0020731599	0.00022752528
0.062133066	0.076732673	0.0018980535	0.00022752528
0.06233	0.070153847	0.0017306282	0.00022752528
0.062526934	0.074165635	0.0018328051	0.0002275251
0.062723875	0.068858564	0.0017046115	0.00022751919
0.062920809	0.083847106	0.0020712651	0.00022752528
0.063117743	0.091134533	0.0022585469	0.00022751919
0.063314676	0.079559363	0.0019583891	0.00022751919
0.06351161	0.085522294	0.0021033704	0.00022752814
0.063708551	0.087063149	0.0021451972	0.00022751919
0.063905485	0.091470949	0.0022634778	0.00022751919
0.064102419	0.090853661	0.0022331609	0.00022751919
0.064299352	0.082669936	0.0020352958	0.00022752528
0.064496286	0.081147037	0.0019950636	0.00022752205
0.064693227	0.085662208	0.0021015701	0.00022751919
0.064890161	0.079393938	0.0019457143	0.00022751919
0.065087095	0.073915698	0.0018168704	0.00022752528
0.065284029	0.067196093	0.0016518156	0.00022752528
0.065480962	0.077481844	0.0018963894	0.00022752205
0.065677904	0.077015646	0.0018798761	0.00022752528
0.065874837	0.079854809	0.0019544114	0.00022751919
0.066071771	0.093919329	0.0022948112	0.00022751919
0.066268705	0.092503026	0.0022651178	0.00022751919
0.066465639	0.092113182	0.0022503259	0.00022752205
0.06666258	0.091616765	0.0022334065	0.00022751919
0.066859514	0.06178074	0.0015116987	0.00022751919
0.067056447	0.06837099	0.0016587984	0.00022751919
0.067253381	0.079497911	0.0019348753	0.00022751919
0.067450315	0.066945605	0.00162739	0.00022751596
0.067647256	0.072455093	0.0017644913	0.00022751919
0.06784419	0.075539567	0.0018402167	0.00022751919
0.068041123	0.068639055	0.0016609436	0.00022751311
0.068238057	0.062833436	0.0015213705	0.00022751311
0.068434991	0.077837199	0.0018894243	0.00022752205
0.068631932	0.072695032	0.0017588377	0.00022751311
0.068828866	0.063995212	0.0015561276	0.00022751311
0.0690258	0.071887784	0.0017293857	0.00022751311
0.069222733	0.066706024	0.0016123519	0.00022751311
0.069419667	0.072695032	0.0017587201	0.00022751596
0.069616608	0.060961314	0.0014681468	0.00022751311
0.069813542	0.069876686	0.0016847079	0.00022751311
0.070010476	0.077149585	0.0018639996	0.00022751311
0.07020741	0.077968106	0.0018869651	0.00022751311
0.070404343	0.065857887	0.0015749494	0.00022752205
0.070601285	0.063047282	0.0015144491	0.00022751311
0.070798218	0.070307963	0.0016859287	0.00022751311
0.070995152	0.070381232	0.0016966825	0.00022751311
0.071192086	0.072387621	0.0017405964	0.00022751311
0.071389019	0.058688149	0.001400419	0.00022751596
0.071585961	0.072505802	0.0017379496	0.00022750701
0.071782894	0.068208091	0.0016310237	0.00022751311
0.071979828	0.067904815	0.0016272089	0.00022751311
0.072176762	0.066858791	0.0015967332	0.00022751311
0.072373696	0.071633235	0.001705341	0.00022751596
0.072570637	0.064927533	0.0015552248	0.00022751311
0.072767571	0.083001703	0.0019706651	0.00022750701
0.072964504	0.073495373	0.0017589151	0.00022750701
0.073161438	0.07950028	0.001885126	0.00022751311
0.073358372	0.068649888	0.0016344509	0.00022750988
0.073555313	0.064516127	0.0015407118	0.00022750701
0.073752247	0.059920859	0.001417442	0.00022751311
0.073949181	0.079908676	0.0019003587	0.00022750701
0.074146114	0.067345783	0.0015939958	0.00022751311
0.074343048	0.066172279	0.0015726712	0.00022750988
0.074539989	0.061896648	0.0014663726	0.00022750701
0.074736923	0.067076579	0.0015781338	0.00022750701
0.074933857	0.060899261	0.0014451987	0.00022750701
0.07513079	0.057995494	0.0013686873	0.00022750701
0.075327724	0.057995494	0.0013685566	0.0002275038
0.075524665	0.06366197	0.0015035907	0.00022750701
0.075721599	0.06514477	0.0015294487	0.00022750093
0.075918533	0.067567565	0.0015958319	0.00022750701
0.076115467	0.073307216	0.0017259626	0.00022750701
0.0763124	0.070910104	0.001668061	0.00022750988
0.076509342	0.065072306	0.0015274606	0.00022750701
0.076706275	0.06440866	0.001510662	0.00022750701
0.076903209	0.076793723	0.0018102529	0.00022750701
0.077100143	0.062258951	0.0014542663	0.00022750093
0.077297077	0.06818182	0.0015977966	0.0002275038
0.077494018	0.069521688	0.0016325928	0.00022750093
0.077690952	0.057724025	0.0013457489	0.00022750093
0.077887885	0.056824513	0.001334234	0.00022750093
0.078084819	0.057734206	0.0013401898	0.00022750093
0.078281753	0.058888279	0.0013737105	0.0002275038
0.078478694	0.059988994	0.0014002867	0.00022750093
0.078675628	0.068814859	0.0016006072	0.00022750093
0.078872561	0.058434401	0.0013642801	0.00022750093
0.079069495	0.057765666	0.0013405612	0.00022750093
0.079266429	0.073104203	0.0016996718	0.0002275038
0.07946337	0.066521265	0.0015461041	0.00022750093
0.079660304	0.062195782	0.0014389615	0.00022750093
0.079857238	0.067176409	0.0015622661	0.00022750093
0.080054171	0.059491616	0.0013766759	0.00022750093
0.080251105	0.068664849	0.0015959843	0.0002275038
0.080448046	0.060916442	0.0014073626	0.00022749485
0.08064498	0.065310493	0.0015039756	0.00022750093
0.080841914	0.061788619	0.0014310088	0.00022750093
0.081038848	0.061695278	0.0014214066	0.00022749485
0.081235781	0.063852817	0.0014782647	0.00022749772
0.081432723	0.053361792	0.001224955	0.00022749485
0.081629656	0.0592	0.001359906	0.00022749485
0.08182659	0.065881096	0.001517392	0.00022749485
0.082023524	0.056412987	0.001293859	0.00022749485
0.082220457	0.066274717	0.0015247995	0.00022749772
0.082417399	0.0704	0.001617924	0.00022749485
0.082614332	0.064395957	0.001478188	0.00022749485
0.082811266	0.060541689	0.0013874708	0.00022749485
0.0830082	0.062631577	0.001429868	0.00022749485
0.083205134	0.056025371	0.0012805443	0.00022749163
0.083402075	0.06339144	0.0014501674	0.00022749485
0.083599009	0.068653539	0.0015765365	0.00022749485
0.083795942	0.069779642	0.0015909154	0.00022748877
0.083992876	0.063907802	0.0014557765	0.00022749485
0.08418981	0.064397909	0.0014667246	0.00022749772
0.084386751	0.059131347	0.0013463714	0.00022748877
0.084583685	0.059069525	0.0013441539	0.00022749485
0.084780619	0.066631965	0.0015137758	0.00022749485
0.084977552	0.061064716	0.0013881157	0.00022748877
0.085174486	0.055842813	0.0012633698	0.00022749163
0.085371427	0.057202287	0.0012975333	0.00022748877
0.085568361	0.065362841	0.001476448	0.00022748877
0.085765295	0.068415634	0.0015451942	0.00022748877
0.085962228	0.069343068	0.0015766354	0.00022748877
0.086159162	0.067456231	0.0015243692	0.00022748555
0.086356103	0.058103975	0.0013054198	0.00022748877
0.086553037	0.070841886	0.0015985605	0.00022748877
0.086749971	0.066023365	0.0014821042	0.00022748877
0.086946905	0.062757201	0.0014166323	0.00022748268
0.087143838	0.066396348	0.001488578	0.00022749163
0.08734078	0.074961752	0.0016866579	0.00022748877
0.087537713	0.071935154	0.0016126464	0.00022748268
0.087734647	0.054628223	0.0012223702	0.00022748877
0.087931581	0.059451219	0.0013333563	0.00022748877
0.088128515	0.072827727	0.0016255996	0.00022748555
0.088325456	0.067975834	0.0015177863	0.00022748268
0.08852239	0.063797466	0.0014291193	0.00022748268
0.088719323	0.067898154	0.0015102532	0.00022748268
0.088916257	0.062625252	0.0013953956	0.00022748268
0.089113191	0.060439561	0.0013446101	0.00022748555
0.089310132	0.055444557	0.0012326591	0.00022748268
0.089507066	0.048306774	0.0010717923	0.00022748268
0.089703999	0.048611112	0.0010764777	0.00022748268
0.089900933	0.054000001	0.0012015498	0.00022748268
0.090097867	0.064436793	0.0014229064	0.00022747947
0.090294808	0.057826519	0.0012849807	0.00022748268
0.090491742	0.073507644	0.0016267985	0.00022748268
0.090688676	0.063766681	0.0014112116	0.00022748268
0.090885609	0.064659424	0.0014298677	0.0002274766
0.091082543	0.052683406	0.0011623855	0.00022748268
0.091279477	0.059517954	0.0013133335	0.00022748555
0.091476418	0.066404328	0.0014663431	0.0002274766
0.091673352	0.070800781	0.0015581974	0.00022748268
0.091870286	0.062837504	0.0013861369	0.0002274766
0.092067219	0.060235064	0.0013263638	0.0002274766
0.092264153	0.058422592	0.0012832028	0.00022747947
0.092461094	0.050243903	0.0011036249	0.0002274766
0.092658028	0.062591687	0.0013780945	0.0002274766
0.092854962	0.053701017	0.0011752544	0.0002274766
0.093051895	0.051715806	0.0011308043	0.0002274766
0.093248829	0.06702283	0.0014712652	0.00022747337
0.09344577	0.055582408	0.0012155368	0.0002274766
0.093642704	0.052964043	0.0011614308	0.00022747052
0.093839638	0.061716489	0.0013489546	0.0002274766
0.094036572	0.052429054	0.0011438751	0.0002274766
0.094233505	0.06840077	0.0014954731	0.00022747947
0.094430447	0.06465517	0.0014086238	0.00022747052
0.09462738	0.057971016	0.0012684404	0.00022747052
0.094824314	0.048302248	0.0010504836	0.00022747052
0.095021248	0.06510292	0.0014186403	0.00022747052
0.095218182	0.057115659	0.0012400313	0.00022747337
0.095415123	0.056378406	0.0012261483	0.00022747052
0.095612057	0.057646498	0.0012522151	0.00022747052
0.09580899	0.062767476	0.0013628254	0.00022747052
0.096005924	0.058373205	0.0012707053	0.00022747052
0.096202858	0.062588908	0.0013569343	0.00022747337
0.096399799	0.06004728	0.0013003533	0.00022747052
0.096596733	0.065380998	0.0014123175	0.00022746444
0.096793666	0.066635162	0.0014424686	0.00022747052
0.0969906	0.048204158	0.0010425071	0.00022746444
0.097187534	0.057021677	0.0012316534	0.00022747337
0.097384475	0.058573455	0.0012675257	0.00022746444
0.097581409	0.056860901	0.0012271241	0.00022747052
0.097778343	0.070265241	0.001509788	0.00022746444
0.097975276	0.066823527	0.0014443996	0.00022746444
0.09817221	0.06623134	0.0014251678	0.00022746729
0.098369151	0.055634134	0.0012022937	0.00022746444
0.098566085	0.059749883	0.0012801266	0.00022746444
0.098763019	0.056206089	0.0012105238	0.00022746444
0.098959953	0.059666976	0.0012773852	0.00022746444
0.099156886	0.061893765	0.0013243459	0.00022746121
0.099353828	0.056489263	0.0012150276	0.00022746444
0.099550761	0.04739777	0.0010163544	0.00022745834
0.099747695	0.052558783	0.0011231366	0.00022745834
0.099944629	0.057354301	0.0012275885	0.00022745834
0.10014156	0.060229886	0.0012860657	0.00022746121
0.1003385	0.061375175	0.0013128878	0.00022745834
0.10053544	0.05917431	0.0012619774	0.00022746444
0.10073237	0.052044611	0.0011162421	0.00022745834
0.1009293	0.057286892	0.0012204908	0.00022746444
0.10112624	0.056818184	0.0012058521	0.00022746121
0.10132318	0.050091911	0.0010683272	0.00022746444
0.10152011	0.054066334	0.0011474359	0.00022745834
0.10171705	0.054412436	0.0011582254	0.00022745834
0.10191398	0.069735646	0.0014833716	0.00022745834
0.10211091	0.052992232	0.001127068	0.00022746121
0.10230786	0.065484308	0.001390825	0.00022745834
0.10250479	0.055605788	0.0011771215	0.00022745226
0.10270172	0.054954953	0.0011608021	0.00022745226
0.10289866	0.05193622	0.0011032373	0.00022745226
0.10309559	0.060018051	0.0012696496	0.00022745512
0.10329253	0.062103353	0.001316649	0.00022745226
0.10348947	0.060538117	0.0012765065	0.00022745834
0.1036864	0.068018019	0.0014385026	0.00022745226
0.10388333	0.07716465	0.0016291394	0.00022745226
0.10408027	0.092217721	0.0019505735	0.00022746121
0.10427721	0.088340804	0.0018656598	0.00022745226
0.10447414	0.10632571	0.0022467799	0.00022745226
0.10467108	0.10026738	0.0021112759	0.00022745226
0.10486801	0.094769783	0.0019983172	0.00022745226
0.10506494	0.10909091	0.0022920941	0.00022745512
0.10526188	0.084632516	0.0017808933	0.00022745226
0.10545882	0.10116383	0.0021349476	0.00022744617
0.10565575	0.10500664	0.0022051334	0.00022745226
0.10585269	0.081705153	0.001716713	0.00022745226
0.10604962	0.08966431	0.001879195	0.00022745512
0.10624656	0.09115044	0.0019120402	0.00022744617
0.10644349	0.082082964	0.0017190287	0.00022744617
0.10664043	0.082782917	0.0017321944	0.00022745226
0.10683736	0.080937639	0.0016965519	0.00022744617
0.1070343	0.080985919	0.0016935881	0.00022744904
0.10723124	0.072584175	0.0015123163	0.00022744617
0.10742817	0.080616742	0.0016868765	0.00022744617
0.1076251	0.076355748	0.0015851372	0.00022744617
0.10782204	0.056263737	0.0011747436	0.00022744617
0.10801897	0.067337126	0.001402895	0.00022744904
0.10821591	0.069584243	0.0014507257	0.00022744617
0.10841285	0.072362684	0.0015056187	0.00022744617
0.10860978	0.068368673	0.0014173015	0.00022744009
0.10880671	0.075065844	0.0015675924	0.00022744009
0.10900365	0.072507553	0.0015012543	0.00022744904
0.10920059	0.067444876	0.0013978186	0.00022744009
0.10939752	0.064642079	0.0013414527	0.00022744009
0.10959446	0.07645788	0.0015842183	0.00022744009
0.10979139	0.062119897	0.0012896454	0.00022744009
0.10998832	0.073296182	0.0015127916	0.00022744296
0.11018527	0.089693837	0.0018579683	0.00022744009
0.1103822	0.078845322	0.0016318701	0.00022744009
0.11057913	0.078111589	0.0016133792	0.00022743401
0.11077607	0.08261618	0.001709088	0.00022744009
0.110973	0.07112436	0.0014631907	0.00022743687
0.11116994	0.075245835	0.0015508973	0.00022743401
0.11136688	0.085653104	0.0017674299	0.00022743401
0.11156381	0.093151852	0.0019165411	0.00022743401
0.11176074	0.10042735	0.0020713848	0.00022743401
0.11195768	0.086089909	0.0017681536	0.00022744296
0.11215462	0.09876015	0.0020373331	0.00022743401
0.11235155	0.10823429	0.002225301	0.00022743401
0.11254849	0.10595188	0.0021721595	0.00022743401
0.11274542	0.10922947	0.0022428038	0.00022743401
0.11294235	0.12049215	0.0024772203	0.00022743687
0.11313929	0.12695725	0.00260695	0.00022743401
0.11333623	0.15148972	0.0030984138	0.00022743401
0.11353316	0.17124736	0.0035164678	0.00022742792
0.1137301	0.2407563	0.0049301409	0.00022743401
0.11392703	0.33891213	0.0069272197	0.00022743079
0.11412397	0.60478789	0.012388021	0.00022742792
0.1143209	1.086591	0.022269379	0.00022742792
0.11451784	1.8932608	0.038723513	0.00022742792
0.11471477	3.2882922	0.067344725	0.00022742792
0.11491171	5.4594035	0.11109208	0.00022743079
0.11510865	8.451169	0.17262144	0.00022742792
0.11530558	12.037885	0.24558035	0.00022742792
0.11550251	16.039732	0.32797876	0.00022742792
0.11569945	19.767509	0.40236431	0.00022742792
0.11589638	22.721142	0.46210983	0.00022743079
0.11609332	24.768499	0.50355148	0.00022742792
0.11629026	25.445364	0.51764214	0.00022742792
0.11648719	25.032246	0.50892973	0.00022742184
0.11668412	23.901321	0.48564097	0.00022742184
0.11688106	22.244408	0.45272607	0.00022742471
0.117078	20.060034	0.40675411	0.00022742184
0.11727493	18.349979	0.3712357	0.00022742184
0.11747187	16.234549	0.32842821	0.00022742184
0.1176688	14.380074	0.29113862	0.00022742184
0.11786573	12.702971	0.25796485	0.00022742471
0.11806267	10.769702	0.21757244	0.00022742184
0.11825961	9.0106516	0.18232237	0.00022742184
0.11845654	7.3041363	0.14703369	0.00022742184
0.11865348	5.7798128	0.1165592	0.00022742184
0.11885041	4.3723884	0.088461049	0.00022741863
0.11904735	2.9129555	0.058588393	0.00022741576
0.11924428	1.9467046	0.039248612	0.00022741576
0.11944122	1.2625405	0.025383098	0.00022741576
0.11963815	0.89073926	0.017944634	0.00022741576
0.11983509	0.63720369	0.012767068	0.00022741863
0.12003203	0.52625203	0.010571074	0.00022741576
0.12022896	0.44006503	0.008865987	0.00022741576
0.12042589	0.40728745	0.0081905285	0.00022741576
0.12062283	0.35951903	0.0071929335	0.00022741576
0.12081976	0.33333334	0.0066713369	0.00022741863
0.1210167	0.29359999	0.0058675581	0.00022741576
0.12121364	0.27907917	0.0056041479	0.00022740968
0.12141057	0.23273453	0.0046455427	0.00022740968
0.1216075	0.23906939	0.004783445	0.00022741576
0.12180444	0.21058917	0.0041972809	0.00022741254
0.12200138	0.22040653	0.0043956582	0.00022740968
0.12219831	0.19488817	0.0038904184	0.00022741576
0.12239525	0.19128713	0.0038022103	0.00022741576
0.12259218	0.17738713	0.0035411036	0.00022740968
0.12278911	0.16116196	0.0032103809	0.00022741254
0.12298606	0.16481334	0.0032801055	0.00022740968
0.12318299	0.15360254	0.0030517445	0.00022740968
0.12337992	0.15300117	0.0030260975	0.00022740968
0.12357686	0.14756049	0.002934756	0.00022740968
0.12377379	0.1536942	0.003050704	0.00022740646
0.12397073	0.13146466	0.0026078268	0.00022740968
0.12416767	0.13393559	0.0026502507	0.00022740359
0.1243646	0.12735109	0.0025166902	0.00022740359
0.12456153	0.12421136	0.0024621526	0.00022740359
0.12475847	0.13322884	0.0026327365	0.00022740646
0.12495541	0.13065723	0.0025876607	0.00022739463
0.12515233	0.11884285	0.0023456588	0.00022740323
0.12534928	0.11366291	0.0022382713	0.00022739751
0.12554622	0.11536957	0.0022772895	0.00022739751
0.12574315	0.11776137	0.0023174579	0.00022739751
0.12594008	0.11254396	0.0022203268	0.00022739751
0.12613702	0.11504081	0.0022636147	0.00022740968
0.12633395	0.11111111	0.0021897557	0.00022740968
0.12653089	0.094500385	0.0018555156	0.00022739751
0.12672782	0.11089645	0.0021757183	0.00022739751
0.12692475	0.094236761	0.0018555882	0.00022739751
0.12712169	0.091117918	0.0017786938	0.00022740323
0.12731864	0.089035772	0.0017515132	0.00022739751
0.12751557	0.099268951	0.0019430917	0.00022739751
0.1277125	0.10692307	0.0020923924	0.00022739751
0.12790944	0.10119738	0.0019845394	0.00022739751
0.12810637	0.088427529	0.0017298409	0.00022739751
0.1283033	0.10808739	0.0021120384	0.00022739751
0.12850024	0.094672285	0.0018493392	0.00022739751
0.12869717	0.091778204	0.0017905988	0.00022738535
0.12889411	0.078755282	0.0015396385	0.00022739751
0.12909104	0.090528719	0.0017615921	0.00022740323
0.12928799	0.092024542	0.0017979705	0.00022739751
0.12948492	0.079575598	0.0015449623	0.00022739751
0.12968186	0.084447838	0.0016466685	0.00022738535
0.12987879	0.076161459	0.0014821651	0.00022738535
0.13007572	0.087779038	0.0017033345	0.00022738535
0.13027266	0.085235924	0.0016584214	0.00022738535
0.13046959	0.080120936	0.0015537814	0.00022738535
0.13066652	0.065604851	0.001273546	0.00022738535
0.13086346	0.084310018	0.0016351331	0.00022739751
0.13106039	0.077269316	0.0014927906	0.00022740323
0.13125734	0.076806083	0.0014939167	0.00022738535
0.13145427	0.087903835	0.0016996058	0.00022738535
0.13165121	0.083239168	0.0016112728	0.00022738535
0.13184814	0.074559763	0.0014390472	0.00022738535
0.13204508	0.076894224	0.0014853098	0.00022738535
0.13224201	0.074773416	0.0014488202	0.00022738535
0.13243894	0.083333336	0.0016068313	0.00022738535
0.13263588	0.075260803	0.0014486969	0.00022738535
0.13283281	0.06955871	0.0013412734	0.00022738535
0.13302974	0.080464073	0.0015525814	0.00022739106
0.13322669	0.076865673	0.0014806862	0.00022738535
0.13342363	0.084877685	0.0016301828	0.00022738535
0.13362056	0.08095061	0.0015558359	0.00022738535
0.13381749	0.074543424	0.0014350702	0.00022737318
0.13401443	0.074032739	0.0014240677	0.00022737318
0.13421136	0.069387756	0.0013327765	0.00022738535
0.1344083	0.076639645	0.0014672718	0.00022737318
0.13460523	0.07280118	0.0013955557	0.00022737318
0.13480216	0.075092934	0.001443781	0.00022737318
0.1349991	0.080740742	0.0015497886	0.0002273789
0.13519605	0.079533018	0.0015156228	0.00022737318
0.13539298	0.065531284	0.0012572192	0.00022737318
0.13558991	0.073992677	0.0014121969	0.00022737318
0.13578685	0.081955165	0.0015672895	0.00022737318
0.13598378	0.073965579	0.0014116301	0.00022737318
0.13618071	0.071428575	0.0013667919	0.00022737318
0.13637765	0.083485901	0.0015940802	0.00022737318
0.13657458	0.067226894	0.0012814023	0.00022737318
0.13677152	0.065962099	0.0012553509	0.00022737318
0.13696845	0.061046511	0.0011600169	0.00022737318
0.13716538	0.066082515	0.0012589063	0.0002273789
0.13736233	0.069520675	0.0013260453	0.00022737318
0.13755926	0.066112719	0.0012528379	0.00022737318
0.1377562	0.071740717	0.0013654182	0.00022737318
0.13795313	0.057692308	0.0010950777	0.00022736102
0.13815007	0.06608884	0.0012517453	0.00022736102
0.138347	0.059463378	0.0011287282	0.00022737318
0.13854393	0.069784172	0.0013198957	0.00022737318
0.13874087	0.064363636	0.0012236061	0.00022736102
0.1389378	0.065703973	0.0012446931	0.00022736102
0.13913473	0.062701538	0.0011830508	0.00022736673
0.13933168	0.050682962	0.00095752458	0.00022737318
0.13952862	0.062118493	0.0011731798	0.00022737318
0.13972555	0.066860467	0.0012708632	0.00022736102
0.13992248	0.063791871	0.0012005811	0.00022736102
0.14011942	0.058443885	0.0011030416	0.00022736102
0.14031635	0.067238912	0.0012677594	0.00022737318
0.14051329	0.065643951	0.0012360389	0.00022736102
0.14071022	0.058485828	0.0011038944	0.00022736102
0.14090715	0.059177887	0.0011102444	0.00022736102
0.14110409	0.054980364	0.0010353446	0.00022736673
0.14130104	0.06182988	0.0011652082	0.00022736102
0.14149797	0.057406094	0.0010769495	0.00022736102
0.1416949	0.066335581	0.0012458746	0.00022734885
0.14189184	0.061130743	0.0011455371	0.00022736102
0.14208877	0.068214282	0.0012855541	0.00022736102
0.1422857	0.060616802	0.0011376288	0.00022736102
0.14248264	0.061074059	0.0011403719	0.00022736102
0.14267957	0.062056739	0.0011647699	0.00022736102
0.14287651	0.064674869	0.0012086581	0.00022736102
0.14307344	0.066525124	0.001247801	0.00022735457
0.14327039	0.055867884	0.0010434564	0.00022736102
0.14346732	0.059817031	0.0011184759	0.00022734885
0.14366426	0.06142506	0.0011473305	0.00022734885
0.14386119	0.071253069	0.001331316	0.00022736102
0.14405812	0.065499127	0.0012223464	0.00022734885
0.14425506	0.056505058	0.0010519733	0.00022734885
0.14445199	0.052963872	0.00098855165	0.00022734885
0.14464892	0.063180067	0.0011800802	0.00022734885
0.14484586	0.061174836	0.0011369927	0.00022734885
0.14504279	0.062412832	0.0011619662	0.00022735457
0.14523974	0.062888734	0.0011655496	0.00022734885
0.14543667	0.058225185	0.001084983	0.00022733668
0.14563361	0.066296428	0.0012300159	0.00022734885
0.14583054	0.068821691	0.0012782241	0.00022734885
0.14602748	0.061916292	0.0011465382	0.00022734885
0.14622441	0.056767046	0.0010525088	0.00022733668
0.14642134	0.061852109	0.0011462329	0.00022734885
0.14661828	0.065771349	0.0012170089	0.00022733668
0.14681521	0.065857887	0.0012225955	0.00022733668
0.14701214	0.063470162	0.0011753208	0.0002273424
0.14720909	0.059249051	0.0010958629	0.00022733668
0.14740603	0.06239228	0.0011548939	0.00022733668
0.14760296	0.053133514	0.00097700884	0.00022733668
0.14779989	0.057526696	0.0010640591	0.00022733668
0.14799683	0.056837752	0.0010513793	0.00022733668
0.14819376	0.060439561	0.0011164445	0.00022733668
0.1483907	0.057514548	0.0010608038	0.00022733668
0.14858763	0.066712052	0.0012273896	0.00022733668
0.14878456	0.056338027	0.0010407155	0.00022733668
0.1489815	0.061694916	0.0011322057	0.0002273424
0.14917845	0.065417379	0.0012042006	0.00022733668
0.14937538	0.061050478	0.0011241605	0.00022733668
0.14957231	0.057229936	0.0010499146	0.00022733668
0.14976925	0.067465752	0.0012452921	0.00022733668
0.14996618	0.052578364	0.00096193422	0.00022733668
0.15016311	0.061355934	0.0011263053	0.00022732452
0.15036005	0.060863651	0.001118863	0.00022732452
0.15055698	0.049528301	0.00090566889	0.00022733668
0.15075392	0.05132563	0.00094299554	0.00022733668
0.15095085	0.059040591	0.0010756933	0.00022733024
0.1511478	0.055911083	0.0010205286	0.00022732452
0.15134473	0.063239768	0.0011579724	0.00022733668
0.15154167	0.05300235	0.00096742116	0.00022732452
0.1517386	0.061866127	0.0011342112	0.00022732452
0.15193553	0.04989953	0.00090983993	0.00022732452
0.15213247	0.055462185	0.0010136266	0.00022733668
0.1523294	0.060677171	0.001107699	0.00022732452
0.15252633	0.054648452	0.00099435821	0.00022732452
0.15272327	0.061559051	0.0011226324	0.00022732452
0.1529202	0.066066064	0.0012035167	0.00022733024
0.15311715	0.052984573	0.00096701254	0.00022732452
0.15331408	0.056164838	0.0010206666	0.00022732452
0.15351102	0.054188829	0.00098474952	0.00022732452
0.15370795	0.053910151	0.00098018814	0.00022731235
0.15390489	0.053910151	0.00098011293	0.00022732452
0.15410182	0.054250743	0.00098355883	0.00022732452
0.15429875	0.05282392	0.00095926394	0.00022732452
0.15449569	0.052456841	0.00095263799	0.00022731235
0.15469262	0.05294507	0.00096010877	0.00022731235
0.15488955	0.056324109	0.0010188662	0.00022731809
0.1550865	0.047430828	0.00085771218	0.00022732452
0.15528344	0.050033133	0.00090771704	0.00022731235
0.15548037	0.049354091	0.00089500187	0.00022731235
0.1556773	0.046885245	0.00084578985	0.00022731235
0.15587424	0.049423393	0.00089403731	0.00022731235
0.15607117	0.050913837	0.00091680308	0.00022731235
0.1562681	0.048137158	0.00087038771	0.00022731235
0.15646504	0.04829172	0.00087204127	0.00022732452
0.15666197	0.051994767	0.00093710073	0.00022731235
0.15685891	0.049689442	0.00089504936	0.00022731809
0.15705585	0.05122349	0.00092221214	0.00022731235
0.15725279	0.059921414	0.001081246	0.00022731235
0.15744972	0.059492849	0.0010694728	0.00022731235
0.15764666	0.057617188	0.0010361028	0.00022731235
0.15784359	0.059016392	0.0010652584	0.00022731235
0.15804052	0.053501945	0.00096007646	0.00022731235
0.15823746	0.051808406	0.00093180651	0.00022731235
0.15843439	0.049581457	0.00088671007	0.00022731235
0.15863132	0.0460441	0.00082583289	0.00022730019
0.15882826	0.052442998	0.00094308169	0.00022731809
0.15902521	0.057853911	0.0010366031	0.00022730019
0.15922214	0.050534498	0.0009061998	0.00022730019
0.15941907	0.049069915	0.00087543519	0.00022731235
0.15961601	0.057623826	0.0010331928	0.00022730019
0.15981294	0.049903411	0.00089185307	0.00022730019
0.16000988	0.04797167	0.00085715239	0.00022730019
0.16020681	0.055716585	0.0009964559	0.00022730019
0.16040374	0.063802503	0.0011391032	0.00022730019
0.16060068	0.050290134	0.00089944777	0.00022730019
0.16079761	0.048803829	0.00086813635	0.00022730592
0.16099456	0.059649121	0.0010619165	0.00022730019
0.16119149	0.051818475	0.000926212	0.00022730019
0.16138843	0.046370324	0.00082562875	0.00022730019
0.16158536	0.043255366	0.00077062566	0.00022730019
0.16178229	0.053066414	0.00094245333	0.00022728802
0.16197923	0.051372048	0.00091419619	0.00022728802
0.16217616	0.049268913	0.00087478606	0.00022728802
0.1623731	0.054759629	0.00097381929	0.00022728802
0.16257003	0.052364327	0.0009295122	0.00022728802
0.16276696	0.048284624	0.00085709593	0.00022730592
0.16296391	0.050508261	0.00089691224	0.00022728802
0.16316085	0.055045873	0.00097562541	0.00022730019
0.16335778	0.043657072	0.00077315036	0.00022728802
0.16355471	0.048849668	0.00086389668	0.00022728802
0.16375165	0.054551322	0.00097675528	0.00022728802
0.16394858	0.055591889	0.0010020073	0.00022728802
0.16414551	0.048318643	0.00086972164	0.00022728802
0.16434245	0.055518836	0.0010055993	0.00022728802
0.16453938	0.047872342	0.00086933689	0.00022728802
0.16473632	0.05479452	0.00099789945	0.00022729376
0.16493326	0.053234503	0.00097354909	0.00022728802
0.1651302	0.053673264	0.00097956264	0.00022727586
0.16532713	0.05369357	0.00098875281	0.00022728802
0.16552407	0.057210561	0.0010491225	0.00022727586
0.165721	0.053559322	0.00098231551	0.00022728802
0.16591793	0.045314111	0.00083591038	0.00022727586
0.16611487	0.046966061	0.00086577079	0.00022727586
0.1663118	0.055208333	0.0010247859	0.00022728802
0.16650873	0.045032658	0.00083135348	0.00022728802
0.16670567	0.052015156	0.00096185174	0.00022728159
0.16690262	0.05175408	0.00096073112	0.00022727586
0.16709955	0.058864508	0.0010946024	0.00022727586
0.16729648	0.049508426	0.00092377356	0.00022727586
0.16749342	0.045612812	0.00084717345	0.00022727586
0.16769035	0.047569081	0.00088570395	0.00022727586
0.16788729	0.053672317	0.0010046302	0.00022727586
0.16808422	0.048331015	0.00089761469	0.00022727586
0.16828115	0.042862203	0.00080285053	0.00022727586
0.16847809	0.057253249	0.0010691378	0.00022726369
0.16867502	0.055515759	0.0010463026	0.00022728159
0.16887197	0.049663	0.00093113858	0.00022727586
0.1690689	0.051553674	0.00096486986	0.00022726369
0.16926584	0.039445627	0.0007398242	0.00022727586
0.16946277	0.048076924	0.00090326782	0.00022727586
0.1696597	0.045307443	0.00085528992	0.00022726369
0.16985664	0.044531528	0.00083599967	0.00022726369
0.17005357	0.062522329	0.0011774782	0.00022727586
0.17025051	0.051024076	0.00096343679	0.00022726369
0.17044744	0.048045896	0.00090510701	0.00022726369
0.17064437	0.048648648	0.00091932801	0.00022726943
0.17084132	0.060475163	0.0011432781	0.00022727586
0.17103826	0.048451729	0.00092046621	0.00022726369
0.17123519	0.049221862	0.00093257386	0.00022726369
0.17143212	0.047893409	0.00090511632	0.00022726369
0.17162906	0.053564966	0.0010149793	0.00022726369
0.17182599	0.051245037	0.0009693632	0.00022726369
0.17202292	0.055964652	0.0010697754	0.00022726369
0.17221986	0.054446463	0.0010332017	0.00022726369
0.17241679	0.049945317	0.00094950432	0.00022726369
0.17261373	0.053226393	0.0010121663	0.00022725726
0.17281067	0.05023662	0.00095428264	0.00022726369
0.17300761	0.046955246	0.00089531712	0.00022726369
0.17320454	0.042638484	0.00080979755	0.00022725153
0.17340147	0.048005909	0.0009179716	0.00022725153
0.17359841	0.052709177	0.0010076525	0.00022725153
0.17379534	0.047006976	0.0008967421	0.00022726369
0.17399228	0.052071873	0.00099312013	0.00022726369
0.17418921	0.056451611	0.0010768184	0.00022725153
0.17438614	0.055080015	0.0010583985	0.00022725153
0.17458308	0.058628317	0.0011217048	0.00022725726
0.17478003	0.044798221	0.00085738878	0.00022725153
0.17497696	0.05064695	0.00096942857	0.00022725153
0.17517389	0.050330639	0.00096092786	0.00022725153
0.17537083	0.04533533	0.00087333849	0.00022723936
0.17556776	0.044682421	0.00085447892	0.00022723936
0.17576469	0.054769002	0.0010531228	0.00022723936
0.17596163	0.041479822	0.000797268	0.00022725153
0.17615856	0.054174397	0.0010395276	0.00022725153
0.1763555	0.052847043	0.0010154829	0.00022725153
0.17655243	0.042687453	0.00081837823	0.00022724509
0.17674938	0.041697972	0.00080396241	0.00022723936
0.17694631	0.038620174	0.00074376317	0.00022723936
0.17714325	0.052375607	0.0010092482	0.00022725153
0.17734018	0.046564024	0.00089832145	0.00022723936
0.17753711	0.05652659	0.0010856932	0.00022723936
0.17773405	0.062359128	0.0012043375	0.00022723936
0.17793098	0.053207546	0.0010291776	0.00022723936
0.17812791	0.057035647	0.0011000577	0.00022723936
0.17832485	0.04287326	0.00082709827	0.00022723936
0.17852178	0.039518252	0.00076209364	0.00022724509
0.17871873	0.045300115	0.00087602972	0.00022723936
0.17891566	0.053423628	0.0010317879	0.00022723936
0.1791126	0.055912353	0.0010828316	0.00022722721
0.17930953	0.050207626	0.00097145868	0.00022723936
0.17950647	0.047763456	0.00092577806	0.00022723936
0.1797034	0.053686202	0.001039717	0.00022723936
0.17990033	0.055450775	0.0010728505	0.00022723936
0.18009727	0.050190113	0.0009747555	0.00022722721
0.1802942	0.049602423	0.00096135528	0.00022722721
0.18049113	0.052430157	0.0010216854	0.00022723294
0.18068808	0.059871163	0.0011614256	0.00022722721
0.18088502	0.059113301	0.0011465204	0.00022722721
0.18108195	0.051829267	0.0010076027	0.00022722721
0.18127888	0.049030788	0.00095184072	0.00022722721
0.18147582	0.048473284	0.00094291742	0.00022722721
0.18167275	0.050834596	0.00098593859	0.00022722721
0.18186969	0.045977011	0.00089542638	0.00022722721
0.18206662	0.053297546	0.0010394341	0.00022722721
0.18226355	0.054125663	0.0010489103	0.00022721505
0.18246049	0.052167241	0.0010174202	0.00022723294
0.18265744	0.051164567	0.00099566695	0.00022721505
0.18285437	0.053420447	0.0010428142	0.00022722721
0.1830513	0.049249712	0.00096192322	0.00022722721
0.18324824	0.048761904	0.00094760704	0.00022721505
0.18344517	0.036510378	0.00071123417	0.00022721505
0.1836421	0.042561349	0.00082926819	0.00022721505
0.18383904	0.040384617	0.00078801753	0.00022721505
0.18403597	0.052651808	0.0010277852	0.00022721505
0.18423291	0.041939206	0.00081819366	0.00022721505
0.18442984	0.045331266	0.00088798138	0.00022722078
0.18462679	0.043711655	0.00085134822	0.00022721505
0.18482372	0.04704975	0.00091910135	0.00022721505
0.18502066	0.045349732	0.00088427938	0.00022721505
0.18521759	0.048723899	0.00095360266	0.00022721505
0.18541452	0.046088304	0.00090259477	0.00022721505
0.18561146	0.054377168	0.0010633573	0.00022721505
0.18580839	0.041634541	0.00081319374	0.00022721505
0.18600532	0.050329074	0.00098571018	0.00022720288
0.18620226	0.046177726	0.00090541691	0.00022721505
0.18639919	0.043764524	0.00085674471	0.00022722078
0.18659614	0.047286823	0.00092618348	0.00022720288
0.18679307	0.043681748	0.00085820997	0.00022720288
0.18699001	0.039041359	0.00076309126	0.00022720288
0.18718694	0.043173861	0.00084730558	0.00022720288
0.18738388	0.039170507	0.0007639071	0.00022720288
0.18758081	0.040800314	0.00080371223	0.00022721505
0.18777774	0.041585699	0.00081550132	0.00022720288
0.18797468	0.042056076	0.00082579115	0.00022720288
0.18817161	0.039750583	0.00078071363	0.00022719071
0.18836854	0.044117648	0.00086357398	0.00022720861
0.18856549	0.043273013	0.00085403962	0.00022719071
0.18876243	0.045153756	0.00088639092	0.00022720288
0.18895936	0.053021442	0.0010425716	0.00022720288
0.18915629	0.038296208	0.00075268379	0.00022719071
0.18935323	0.040218666	0.00079042051	0.00022719071
0.18955016	0.045508042	0.00089731626	0.00022720288
0.1897471	0.043528955	0.00085329771	0.00022719071
0.18994403	0.043035995	0.00084674865	0.00022720288
0.19014096	0.049625836	0.00098039396	0.00022719071
0.1903379	0.039314907	0.00077143242	0.00022719646
0.19053484	0.04647499	0.00091793231	0.00022719071
0.19073178	0.051401868	0.00101039	0.00022719071
0.19092871	0.05664831	0.0011192269	0.00022719071
0.19112565	0.045454547	0.00089951325	0.00022719071
0.19132258	0.041309431	0.00081121287	0.00022719071
0.19151951	0.044111855	0.00087119883	0.00022719071
0.19171645	0.045561664	0.00089856563	0.00022719071
0.19191338	0.050019693	0.00098840345	0.00022717856
0.19211031	0.046274509	0.00091166748	0.00022719071
0.19230725	0.049469966	0.00097596407	0.00022719646
0.1925042	0.043271139	0.00085762976	0.00022719071
0.19270113	0.036585364	0.00072085438	0.00022719071
0.19289806	0.050413549	0.0009961644	0.00022719071
0.193095	0.040344693	0.00079391204	0.00022717856
0.19329193	0.047240969	0.00093700486	0.00022719071
0.19348887	0.054193038	0.001073479	0.00022717856
0.1936858	0.042862762	0.00084544392	0.00022717856
0.19388273	0.037884768	0.00074840209	0.00022717856
0.19407967	0.049050633	0.00097111415	0.00022717856
0.1942766	0.043443602	0.00086290971	0.0002271843
0.19447355	0.045383412	0.0008933639	0.00022717856
0.19467048	0.047562424	0.00094234303	0.00022717856
0.19486742	0.045886077	0.00090831734	0.0002271664
0.19506435	0.046086609	0.0009142104	0.0002271664
0.19526128	0.049860392	0.00099112489	0.0002271664
0.19545822	0.039952997	0.0007863029	0.0002271664
0.19565515	0.045654785	0.00090903306	0.0002271664
0.19585209	0.044841271	0.00088877167	0.0002271664
0.19604902	0.053840064	0.0010666965	0.0002271664
0.19624595	0.056175299	0.0011168822	0.00022717213
0.1964429	0.050827425	0.0010042151	0.00022717856
0.19663984	0.050080128	0.00099787826	0.0002271664
0.19683677	0.045831688	0.00090670265	0.0002271664
0.1970337	0.047124602	0.00093711173	0.0002271664
0.19723064	0.051648788	0.0010252286	0.0002271664
0.19742757	0.04805401	0.00095333724	0.0002271664
0.1976245	0.050180651	0.00100082	0.00022715423
0.19782144	0.046714172	0.00092522975	0.0002271664
0.19801837	0.039536741	0.00078520522	0.0002271664
0.19821531	0.040686078	0.00080804614	0.00022715998
0.19841225	0.043789808	0.00086953171	0.0002271664
0.19860919	0.04443555	0.00088479492	0.00022715423
0.19880612	0.051129609	0.0010136769	0.00022715423
0.19900306	0.042219542	0.00084195117	0.00022715423
0.19919999	0.042680494	0.00084784545	0.00022715423
0.19939692	0.037848607	0.00075120485	0.00022715423
0.19959386	0.035483871	0.00070768996	0.0002271664
0.19979079	0.042595543	0.00084494159	0.00022715423
0.19998772	0.042885773	0.00085412123	0.00022715423
0.20018466	0.039872408	0.00079130131	0.00022715998
0.20038161	0.04141536	0.00082557078	0.00022715423
0.20057854	0.043217286	0.0008594867	0.00022715423
0.20077547	0.048741512	0.00096938631	0.00022715423
0.20097241	0.05557793	0.0011106505	0.00022715423
0.20116934	0.04752396	0.00094523595	0.00022715423
0.20136628	0.051509053	0.0010287517	0.00022714208
0.20156321	0.057646118	0.001148485	0.00022715423
0.20176014	0.042321645	0.00084493018	0.00022714208
0.20195708	0.049239393	0.00098012213	0.00022715423
0.20215401	0.040513437	0.00080666062	0.00022715998
0.20235096	0.044703986	0.00089260616	0.00022714208
0.20254789	0.039615847	0.00078797014	0.00022714208
0.20274483	0.046653144	0.00093525933	0.00022714208
0.20294176	0.048019208	0.00095615379	0.00022714208
0.20313869	0.045270815	0.00090554316	0.00022714208
0.20333563	0.043232322	0.00086457282	0.00022714208
0.20353256	0.044603743	0.00088581344	0.00022712992
0.2037295	0.04224208	0.0008465352	0.00022712992
0.20392643	0.042050462	0.00083689782	0.00022714208
0.20412336	0.039366882	0.00078879099	0.00022714782
0.20432031	0.038291011	0.00076415896	0.00022714208
0.20451725	0.03969527	0.00079034123	0.00022714208
0.20471418	0.043054428	0.00086316006	0.00022712992
0.20491111	0.043182727	0.00085845578	0.00022714208
0.20510805	0.041446567	0.00083081028	0.00022712992
0.20530498	0.042810984	0.00085577159	0.00022712992
0.20550191	0.050582096	0.0010088071	0.00022712992
0.20569885	0.050204083	0.0010097442	0.00022712992
0.20589578	0.044105854	0.00087896344	0.00022712992
0.20609272	0.045621183	0.00091563439	0.00022713565
0.20628966	0.037887949	0.00075588451	0.00022712992
0.2064866	0.039756592	0.00079589995	0.00022711777
0.20668353	0.039837398	0.00079832808	0.00022712992
0.20688047	0.040290087	0.00080385065	0.00022712992
0.2070774	0.043354943	0.00086787087	0.00022711777
0.20727433	0.043495771	0.00086826045	0.00022711777
0.20747127	0.038289204	0.00076801382	0.00022711777
0.2076682	0.049147036	0.00098537246	0.00022712992
0.20786513	0.042845596	0.0008567326	0.00022712992
0.20806207	0.038273614	0.00076728081	0.0002271235
0.20825902	0.047234558	0.00094407826	0.00022711777
0.20845595	0.041157294	0.00082605111	0.00022711777
0.20865288	0.04040404	0.000807509	0.00022711777
0.20884982	0.044916291	0.00090277597	0.00022711777
0.20904675	0.035801463	0.00071758917	0.00022711777
0.20924369	0.036105476	0.00072252849	0.0002271056
0.20944062	0.046577562	0.00093263091	0.00022711777
0.20963755	0.05269558	0.0010563063	0.00022711777
0.20983449	0.039473683	0.00079615653	0.00022711777
0.21003142	0.041396104	0.00082945445	0.00022711133
0.21022837	0.043973941	0.00088261947	0.00022711777
0.2104253	0.052974734	0.0010649664	0.00022711777
0.21062224	0.04917372	0.00098257721	0.0002271056
0.21081917	0.037906881	0.0007646876	0.0002271056
0.2110161	0.050202429	0.0010051278	0.0002271056
0.21121304	0.043159608	0.00086663716	0.0002271056
0.21140997	0.048104361	0.00096607133	0.0002271056
0.2116069	0.037990198	0.00076277601	0.0002271056
0.21180384	0.057715923	0.0011630894	0.0002271056
0.21200077	0.051313132	0.0010269935	0.00022711133
0.21219772	0.041563787	0.0008381544	0.00022709343
0.21239465	0.040673789	0.00081957917	0.0002271056
0.21259159	0.044272948	0.00088690926	0.0002271056
0.21278852	0.037959184	0.00076202065	0.0002271056
0.21298546	0.04383117	0.0008781717	0.00022709343
0.21318239	0.044966996	0.00090831332	0.00022709343
0.21337932	0.036120132	0.00072306098	0.00022709343
0.21357626	0.046178993	0.00092818186	0.0002271056
0.21377319	0.043747421	0.000883609	0.0002271056
0.21397012	0.040293042	0.00080851367	0.00022709918
0.21416707	0.046178993	0.00092877017	0.00022709343
0.21436401	0.052181002	0.0010485628	0.00022709343
0.21456094	0.049301561	0.00099450559	0.00022709343
0.21475787	0.040640395	0.00081865443	0.00022708128
0.21495481	0.033919085	0.00068068277	0.00022709343
0.21515174	0.037279803	0.00074963237	0.00022709343
0.21534868	0.034383953	0.00069104816	0.00022708128
0.21554561	0.039522436	0.00079701934	0.00022709343
0.21574254	0.034313727	0.00068893179	0.00022708128
0.21593948	0.037037037	0.00074674212	0.00022709918
0.21613643	0.040640395	0.000818739	0.00022708128
0.21633336	0.041820418	0.00084207812	0.00022708128
0.21653029	0.041906327	0.00084475672	0.00022708128
0.21672723	0.035903715	0.00072057161	0.00022709343
0.21692416	0.03216495	0.00064823934	0.00022708128
0.21712109	0.037782341	0.00076110376	0.00022708128
0.21731803	0.039014373	0.00078609399	0.00022708128
0.21751496	0.036640592	0.00073893636	0.00022708128
0.2177119	0.038696539	0.00077563501	0.00022708128
0.21790883	0.044038221	0.00089259597	0.00022708702
0.21810578	0.040032681	0.00080437568	0.00022708128
0.21830271	0.046694215	0.00094435905	0.00022708128
0.21849965	0.04238683	0.00085520011	0.00022706912
0.21869658	0.038052373	0.00076509762	0.00022708128
0.21889351	0.04145937	0.00083910173	0.00022706912
0.21909045	0.043834493	0.00088270166	0.00022706912
0.21928738	0.04044573	0.00081685855	0.00022706912
0.21948431	0.041666668	0.00084110181	0.00022706912
0.21968125	0.046033703	0.00092838262	0.00022706912
0.21987818	0.054477919	0.0011021887	0.00022707487
0.22007513	0.045435939	0.00091462099	0.00022706912
0.22027206	0.041891333	0.00084850373	0.00022706912
0.220469	0.043513957	0.00087725453	0.00022706912
0.22066593	0.046357617	0.00093835121	0.00022705697
0.22086287	0.045697819	0.00092269218	0.00022705697
0.2210598	0.039142974	0.00078945281	0.00022705697
0.22125673	0.039718658	0.00080331595	0.00022705697
0.22145367	0.034297522	0.00069200562	0.00022705697
0.2216506	0.040909089	0.00082712935	0.00022706912
0.22184753	0.038683128	0.00078034482	0.00022707487
0.22204448	0.039004151	0.00078953721	0.00022705697
0.22224142	0.036303632	0.00073245424	0.00022705697
0.22243835	0.034226805	0.00069037447	0.00022705697
0.22263528	0.034411278	0.00069596415	0.00022705697
0.22283222	0.035773028	0.00072078255	0.00022704482
0.22302915	0.036219817	0.0007341333	0.00022705697
0.22322609	0.040892195	0.00082627556	0.00022704482
0.22342302	0.033703245	0.00067883439	0.00022704482
0.22361995	0.03943545	0.0007989459	0.00022705697
0.22381689	0.040049545	0.0008088781	0.0002270627
0.22401384	0.037578288	0.00076298229	0.00022704482
0.22421077	0.037860081	0.00076299766	0.00022704482
0.2244077	0.033540372	0.00067758677	0.00022704482
0.22460464	0.034540158	0.00069967221	0.00022704482
0.22480157	0.036960986	0.00074453611	0.00022704482
0.2249985	0.031865828	0.00064776075	0.00022704482
0.22519544	0.036475409	0.00073309947	0.00022704482
0.22539237	0.034511436	0.00069921103	0.00022704482
0.22558931	0.038477626	0.00078193151	0.00022704482
0.22578624	0.038005721	0.00076351204	0.00022703838
0.22598319	0.039566848	0.00080276281	0.00022703265
0.22618012	0.030591153	0.00061766419	0.00022704482
0.22637706	0.048974466	0.00099694729	0.00022704482
0.22657399	0.037297968	0.00075445976	0.00022703265
0.22677092	0.046019901	0.00093231263	0.00022703265
0.22696786	0.039800994	0.00080572697	0.00022703265
0.22716479	0.044720497	0.00090535136	0.00022704482
0.22736172	0.043496445	0.0008846909	0.00022703265
0.22755866	0.029338842	0.00059158879	0.00022703265
0.22775559	0.033848725	0.00068716606	0.00022703265
0.22795253	0.039800994	0.00080546149	0.00022703838
0.22814947	0.036129568	0.00073139078	0.00022703265
0.22834641	0.03233831	0.00065425108	0.00022703265
0.22854334	0.044453677	0.00090131385	0.0002270205
0.22874027	0.041614123	0.00084851892	0.00022703265
0.22893721	0.04869996	0.00098485698	0.00022703265
0.22913414	0.038685523	0.0007846423	0.0002270205
0.22933108	0.038621262	0.00078222988	0.0002270205
0.22952801	0.047936641	0.00097397575	0.0002270205
0.22972494	0.047896709	0.00097231299	0.0002270205
0.22992188	0.041873962	0.00084814412	0.00022703838
0.23011883	0.038884193	0.00079454936	0.0002270205
0.23031576	0.042939719	0.00086783903	0.0002270205
0.23051269	0.047856845	0.0009709507	0.0002270205
0.23070963	0.041250002	0.00083723204	0.0002270205
0.23090656	0.036484245	0.00073763798	0.00022700834
0.23110349	0.044463087	0.00090530142	0.00022700834
0.23130043	0.044639133	0.00090656022	0.0002270205
0.23149736	0.042429283	0.00086045353	0.0002270205
0.2316943	0.040935673	0.00083166047	0.0002270205
0.23189123	0.038605232	0.0007817428	0.00022701408
0.23208818	0.038558256	0.00078439096	0.00022700834
0.23228511	0.036636136	0.00074263872	0.00022700834
0.23248205	0.046803176	0.00095206714	0.00022700834
0.23267898	0.038123168	0.00077540695	0.00022700834
0.23287591	0.03449709	0.00069846667	0.00022700834
0.23307285	0.042659976	0.00086765026	0.00022700834
0.23326978	0.040033363	0.00081243715	0.00022700834
0.23346671	0.046327211	0.00094166823	0.00022700834
0.23366365	0.044154752	0.00090091932	0.00022700834
0.23386058	0.041736227	0.00084795093	0.00022701408
0.23405753	0.042939719	0.00086710847	0.00022699618
0.23425446	0.042069837	0.00085753168	0.00022700834
0.2344514	0.035654362	0.00072536175	0.00022699618
0.23464833	0.032595068	0.00066051399	0.00022699618
0.23484527	0.035535116	0.00072182663	0.00022700834
0.2350422	0.035953179	0.00072998309	0.00022700834
0.23523913	0.044519108	0.00090734003	0.00022699618
0.23543607	0.036219817	0.00073403493	0.00022699618
0.235633	0.035535116	0.000721624	0.00022699618
0.23582993	0.034771681	0.00070682383	0.00022700192
0.23602688	0.030736841	0.00062578818	0.00022698403
0.23622382	0.033347227	0.00067617616	0.00022699618
0.23642075	0.031719532	0.00064353057	0.00022699618
0.23661768	0.030595139	0.00062146503	0.00022698403
0.23681462	0.04040404	0.00082374871	0.00022698403
0.23701155	0.033848725	0.00068727235	0.00022699618
0.23720849	0.030075189	0.00060968345	0.00022698403
0.23740542	0.040722083	0.00082925177	0.00022699618
0.23760235	0.043186583	0.00087901781	0.00022698403
0.23779929	0.036959261	0.00075169827	0.00022698977
0.23799624	0.042153589	0.00085614558	0.00022698403
0.23819317	0.033627573	0.00068450498	0.00022698403
0.2383901	0.03190596	0.00064932712	0.00022698403
0.23858704	0.030163385	0.00061272795	0.00022698403
0.23878397	0.03394803	0.00068987248	0.00022698403
0.2389809	0.046140939	0.00094026735	0.00022697187
0.23917784	0.03236654	0.00065838941	0.00022697187
0.23937477	0.039174389	0.00079937739	0.00022698403
0.23957171	0.02596315	0.00052641146	0.00022697187
0.23976864	0.03294412	0.0006681832	0.00022697762
0.23996559	0.039157894	0.00079831143	0.00022697187
0.24016252	0.042301185	0.00086531631	0.00022697187
0.24035946	0.044311889	0.00090968906	0.00022697187
0.24055639	0.043110736	0.00088144041	0.00022697187
0.24075332	0.037904598	0.00077750697	0.00022697187
0.24095026	0.044187043	0.00091026432	0.00022697187
0.24114719	0.03361702	0.00068865041	0.00022697187
0.24134412	0.035117771	0.00072180427	0.00022697187
0.24154106	0.036669541	0.00075698993	0.00022697187
0.24173799	0.037548553	0.00077500916	0.00022696547
0.24193494	0.029079862	0.00060115079	0.00022697187
0.24213187	0.033993114	0.00070035463	0.00022695972
0.24232881	0.035854831	0.00074431347	0.00022697187
0.24252574	0.039790116	0.0008269251	0.00022695972
0.24272268	0.040611353	0.00084327423	0.00022695972
0.24291961	0.036547776	0.00076234591	0.00022695972
0.24311654	0.033942558	0.00070342445	0.00022695972
0.24331348	0.032874279	0.00068822451	0.00022695972
0.24351041	0.033509701	0.00069853367	0.00022695972
0.24370734	0.035211269	0.00073354872	0.00022696547
0.24390429	0.036032028	0.00075483893	0.00022695972
0.24410123	0.033094812	0.0006945185	0.00022695972
0.24429816	0.030195381	0.00063159742	0.00022694757
0.24449509	0.038373686	0.00081488735	0.00022694757
0.24469203	0.041013826	0.00087489985	0.00022695972
0.24488896	0.038894095	0.00083681312	0.00022694757
0.2450859	0.033380348	0.00071825599	0.00022694757
0.24528283	0.042120207	0.00091089425	0.00022694757
0.24547976	0.032904148	0.00071257219	0.00022694757
0.2456767	0.030798845	0.00066999736	0.0002269533
0.24587364	0.031746034	0.00069095555	0.00022694757
0.24607058	0.029626032	0.00064697332	0.0002269354
0.24626751	0.027616279	0.000602093	0.00022694757
0.24646445	0.035450518	0.00078118255	0.00022694757
0.24666138	0.035872236	0.00078932714	0.00022694757
0.24685831	0.031573754	0.00069527328	0.0002269354
0.24705525	0.030799801	0.00068036694	0.0002269354
0.24725218	0.026959561	0.00059630175	0.0002269354
0.24744911	0.031171443	0.00069235318	0.00022694757
0.24764605	0.035482258	0.0007868486	0.00022694115
0.247843	0.029707955	0.00066015363	0.0002269354
0.24803993	0.035787322	0.00080225203	0.0002269354
0.24823686	0.033828806	0.0007591818	0.0002269354
0.2484338	0.030040734	0.00067147549	0.00022692325
0.24863073	0.034465022	0.00077550014	0.0002269354
0.24882767	0.03292181	0.00074064836	0.00022692325
0.2490246	0.039317124	0.00088812341	0.00022692325
0.24922153	0.032392893	0.00073403469	0.00022692325
0.24941847	0.03840166	0.00086893444	0.00022692325
0.2496154	0.033210333	0.00075623562	0.000226929
0.24981235	0.037486799	0.00085481687	0.00022692965
0.25000927	0.036031332	0.00081689964	0.00022692325
0.2502062	0.028266666	0.00064607104	0.0002269354
0.25040314	0.027542373	0.0006274383	0.0002269111
0.25060007	0.034613304	0.00079668069	0.0002269226
0.25079703	0.045940172	0.0010548718	0.0002269111
0.25099397	0.041375604	0.00095230906	0.0002269111
0.2511909	0.031470429	0.00072625111	0.0002269111
0.25138783	0.035541195	0.00081832381	0.0002269111
0.25158477	0.037057221	0.00085760606	0.0002269111
0.2517817	0.042030569	0.00097417983	0.0002269111
0.25197864	0.044931509	0.0010446757	0.0002269111
0.25217557	0.041551247	0.0009710415	0.0002269111
0.2523725	0.052140504	0.0012144557	0.0002269111
0.25256944	0.041689828	0.00097537588	0.0002269111
0.25276637	0.03220433	0.00075112435	0.0002269111
0.2529633	0.032384142	0.00075811462	0.0002268868
0.25316024	0.035472974	0.00083483662	0.0002269111
0.25335717	0.040932346	0.00096810982	0.0002269111
0.25355411	0.036906853	0.00088506454	0.0002269111
0.25375104	0.03068592	0.00074463373	0.0002269111
0.25394797	0.034420289	0.00083705544	0.0002268868
0.25414491	0.039312039	0.00096480711	0.0002269111
0.25434184	0.030360531	0.00075412693	0.0002269111
0.25453877	0.042317707	0.0010712538	0.0002269226
0.25473574	0.038952317	0.00099953369	0.0002268868
0.25493267	0.037465941	0.0009679466	0.0002269111
0.25512961	0.053546593	0.0014011865	0.0002269111
0.25532654	0.032647267	0.00085846242	0.0002269111
0.25552347	0.034959942	0.00093145919	0.0002268868
0.25572041	0.036363635	0.00098989205	0.0002269111
0.25591734	0.042949758	0.0012102348	0.0002269111
0.25611427	0.026655203	0.00076757837	0.0002268868
0.25631121	0.043835618	0.0013073594	0.0002268868
0.25650814	0.036757775	0.0011114256	0.0002268868
0.25670508	0.023233302	0.00070413534	0.0002268868
0.25690201	0.034883723	0.0011163831	0.0002268868
0.25709894	0.048260383	0.0015925618	0.0002268868
0.25729588	0.0377804	0.0012732948	0.0002268868
0.25749281	0.046762589	0.0015906639	0.0002268868
0.25768974	0.041509435	0.0014437384	0.0002268868
0.25788668	0.03622251	0.0012767938	0.0002268868
0.25808361	0.049399197	0.001778961	0.0002268868
0.25828055	0.034199726	0.0012339979	0.0002268868
0.25847748	0.032904148	0.0012108214	0.00022689829
0.25867444	0.032023288	0.0011919558	0.00022686248
0.25887138	0.032110091	0.0012204284	0.00022686248
0.25906831	0.037037037	0.0014176505	0.00022686248
0.25926524	0.039619651	0.0015284427	0.0002268868
0.25946218	0.030100334	0.0011932967	0.00022686248
0.25965911	0.042444821	0.001712169	0.0002268868
0.25985605	0.032928944	0.001335445	0.0002268868
0.26005298	0.053819444	0.0022031753	0.00022686248
0.26024991	0.048951048	0.0020062954	0.00022686248
0.26044685	0.035714287	0.0014723053	0.0002268868
0.26064378	0.055258468	0.0022872235	0.00022686248
0.26084071	0.050359711	0.0020935708	0.00022686248
0.26103765	0.057090238	0.0024071659	0.00022686248
0.26123458	0.029629629	0.001230553	0.00022686248
0.26143152	0.033962265	0.0014256068	0.0002268868
0.26162845	0.036968578	0.0015465065	0.00022686248
0.26182538	0.030592734	0.0012964886	0.00022686248
0.26202232	0.035225049	0.0015108829	0.00022686248
0.26221925	0.013888889	0.00057333719	0.00022686248
0.26241618	0.017208412	0.000710116	0.00022684968
0.26261315	0.039682541	0.0017200116	0.00022683818
0.26281008	0.032520324	0.0014150854	0.00022686248
0.26300701	0.024640657	0.0010620002	0.00022686248
0.26320395	0.030181086	0.0013029701	0.00022683818
0.26340088	0.035940804	0.0015930715	0.00022686248
0.26359782	0.035564855	0.0015681236	0.00022683818
0.26379475	0.044871796	0.002016705	0.00022686248
0.26399168	0.034188036	0.0015254016	0.00022683818
0.26418862	0.023913043	0.0010642218	0.00022683818
0.26438555	0.058165547	0.0027007335	0.00022683818
0.26458248	0.036613271	0.0016977781	0.00022683818
0.26477942	0.029147983	0.0013275396	0.00022683818
0.26497635	0.048951048	0.0023036101	0.00022686248
0.26517329	0.027972028	0.0012945172	0.00022683818
0.26537022	0.036674816	0.0017541078	0.00022683818
0.26556715	0.024038462	0.0011194479	0.00022683818
0.26576409	0.037128713	0.0017867993	0.00022683818
0.26596102	0.035353534	0.0017141228	0.00022683818
0.26615795	0.031088082	0.0015169431	0.00022683818
0.26635489	0.04859335	0.0023949917	0.00022684968
0.26655185	0.050397877	0.002529751	0.00022681388
0.26674879	0.030136986	0.0014923419	0.00022683818
0.26694572	0.032432433	0.0016041936	0.00022683818
0.26714265	0.052054796	0.0026556419	0.00022681388
0.26733959	0.039548021	0.0020283603	0.00022681388
0.26753652	0.059999999	0.0031268524	0.00022681388
0.26773345	0.027190333	0.0014111763	0.00022683818
0.26793039	0.035820894	0.001876588	0.00022683818
0.26812732	0.032544378	0.0016903034	0.00022683818
0.26832426	0.043749999	0.0023604259	0.00022683818
0.26852119	0.053968254	0.002943788	0.00022683818
0.26871812	0.022508038	0.0011835413	0.00022683818
0.26891506	0.028938906	0.0015496192	0.00022681388
0.26911199	0.023569023	0.0012377352	0.00022683818
0.26930892	0.046979867	0.0026268859	0.00022683818
0.26950586	0.024221454	0.0013213885	0.00022683818
0.26970279	0.034364261	0.0019143849	0.00022681388
0.26989973	0.021739131	0.0011966997	0.00022681388
0.27009666	0.011235955	0.00056250131	0.00022681388
0.27029359	0.015267176	0.00081840652	0.00022684968
0.27049056	0.010989011	0.00054403715	0.00022681388
0.27068749	0.0077821012	0.00034392352	0.00022681388
0.27088442	0.0040160641	0	0.00022681388
0.27108136	0.016736401	0.00093951618	0.00022681388
0.27127829	0.0084033618	0.00038597916	0.00022681388
0.27147523	0.021276595	0.0014682246	0.00022681388
0.27167216	0.022727273	0.0017229501	0.00022681388
0.27186909	0.020408163	0	0.00022681388
0.27206603	0	0	0.00022681388
0.27226296	0	0	0.00022681388
