#   DataFileName=PAL30_75C_WAXS_08172017.tif
#   DataFileType=.tif
#   
#   DataFilePath=E:DATA:PAL30_08262017:
#   
#   Processed on=Wed, Jan 16, 2019,2:41:37 AM
#   Units=Arbitrary
#   SampleThickness=1
#   SampleTransmission=1
#   CorrectionFactor=1
#   SampleMeasurementTime=1
#   EmptyMeasurementTime=1
#   BackgroundMeasTime=1
#   SampleI0=1
#   EmptyI0=1
#   Nika_SampleToDetectorDistacne=1552.1
#   Nika_Wavelength=1.54
#   Nika_XrayEnergy=8.0509
#   Nika_PixelSizeX=0.075
#   Nika_PixelSizeY=0.075
#   Nika_HorizontalTilt=0
#   Nika_VerticalTilt=0
#   Nika_BeamCenterX=1540.3
#   Nika_BeamCenterY=830.17
#   Nika_BeamSizeX=0
#   Nika_BeamCenterY=830.17
#   CalibrationFormula=1*((Sa2D))
#   CurrentMaskFileName=PAL30_30C_WAXS_mask.hdf
#   QvectorMaxNumPnts=1
#   QvectorNumberPoints=1383
#   CircularAverage=1
#   PolarizationCorrection=None
#   UncertainityCalculationMethod=OldNikaMethod

0.0060065244	13.5	9.5393925	0.00022756745
0.00620346	6.96	1.3807727	0.00022756765
0.0064003952	4.7543859	0.6275894	0.00022756765
0.0065973303	5.5250001	0.61656332	0.00022756765
0.0067942655	7.3469386	0.73753744	0.00022756765
0.0069912006	9.6074762	0.90920043	0.00022756745
0.0071881362	12.032787	1.0625404	0.00022756727
0.0073850714	13.671756	1.1630974	0.00022756727
0.0075820065	13.993103	1.1401238	0.00022756727
0.0077789417	13.142858	1.0639873	0.00022756745
0.0079758773	11.613924	0.90774322	0.00022756746
0.0081728119	10.932515	0.84206825	0.00022756707
0.0083697475	9.0449438	0.66769528	0.00022756671
0.0085666822	8.1761656	0.57965058	0.00022756783
0.0087636178	7.3230767	0.51589614	0.00022756783
0.0089605534	6.2985783	0.42762193	0.00022756746
0.0091574881	5.7816596	0.3771224	0.00022756707
0.0093544237	5.1040001	0.31874108	0.00022756671
0.0095513584	4.5779467	0.27927575	0.00022756707
0.009748294	4.397059	0.26371765	0.00022756707
0.0099452296	3.7111914	0.22036086	0.00022756595
0.010142164	3.7805755	0.22428289	0.00022756707
0.0103391	3.2626262	0.18732783	0.00022756671
0.010536035	3.2169492	0.18549491	0.00022756707
0.01073297	2.9309211	0.16644232	0.00022756783
0.010929906	2.6495178	0.14886901	0.00022756746
0.01112684	2.4153354	0.13511175	0.00022756783
0.011323776	2.319277	0.12610978	0.00022756746
0.011520711	2.1341465	0.11682852	0.00022756707
0.011717646	1.9763314	0.10661929	0.00022756707
0.011914582	1.9239767	0.10325879	0.00022756746
0.012111517	1.8492754	0.098820485	0.00022756783
0.012308452	1.6373626	0.085081421	0.00022756671
0.012505387	1.6327684	0.086084142	0.00022756783
0.012702323	1.4391534	0.073550694	0.00022756783
0.012899258	1.4959786	0.076955415	0.00022756671
0.013096193	1.2486911	0.063419051	0.00022756707
0.013293128	1.2557545	0.063056149	0.00022756671
0.013490063	1.1881443	0.05990468	0.00022756707
0.013686999	1.1764706	0.057854783	0.00022756707
0.013883934	1.053528	0.051564656	0.00022756671
0.014080869	0.98086125	0.047620025	0.00022756707
0.014277805	0.95529413	0.045989513	0.00022756671
0.014474739	0.91962177	0.044454325	0.0002275663
0.014671675	0.84650111	0.04001883	0.00022756707
0.014868611	0.85909092	0.040736444	0.00022756671
0.015065545	0.81098902	0.037814669	0.0002275663
0.015262481	0.74248928	0.034221511	0.00022756671
0.015459416	0.74725276	0.03486371	0.00022756595
0.01565635	0.74413645	0.034205001	0.00022756707
0.015853286	0.64755839	0.029698489	0.00022756554
0.016050221	0.62886596	0.028413301	0.00022756707
0.016247157	0.64777327	0.028997635	0.00022756707
0.016444093	0.62400001	0.027797723	0.00022756483
0.016641026	0.62248999	0.027784716	0.00022756707
0.016837962	0.55110222	0.024552856	0.00022756707
0.017034898	0.52140075	0.022894422	0.00022756554
0.017231833	0.52390057	0.022792339	0.00022756554
0.017428769	0.45540798	0.019723561	0.00022756483
0.017625703	0.48037383	0.020654088	0.00022756554
0.017822638	0.39664805	0.017035829	0.00022756554
0.018019574	0.47610295	0.020318067	0.00022756554
0.018216509	0.41788322	0.017779788	0.00022756554
0.018413445	0.39355993	0.016570978	0.00022756483
0.018610379	0.40989399	0.017142184	0.00022756554
0.018807314	0.41186735	0.017121499	0.00022756554
0.01900425	0.39688042	0.01644958	0.00022756554
0.019201186	0.39510489	0.016433638	0.00022756554
0.019398121	0.36013401	0.014683372	0.00022756483
0.019595055	0.32881355	0.013474165	0.00022756554
0.019791991	0.36198348	0.0146601	0.00022756554
0.019988926	0.34710744	0.01405715	0.00022756554
0.020185862	0.35294119	0.014220513	0.00022756554
0.020382797	0.29777071	0.011838818	0.00022756483
0.020579731	0.35760519	0.014323502	0.00022756403
0.020776667	0.31504703	0.012435101	0.00022756403
0.020973602	0.26917058	0.010602757	0.00022756554
0.021170538	0.21718749	0.0085371565	0.00022756403
0.021367474	0.25942686	0.010030287	0.0002275633
0.021564407	0.28482974	0.011164029	0.00022756403
0.021761343	0.21524663	0.0082846526	0.00022756403
0.021958278	0.26546004	0.010268318	0.00022756403
0.022155214	0.2657856	0.010143606	0.00022756403
0.02235215	0.20494185	0.0077738576	0.0002275633
0.022549083	0.2555066	0.0097469632	0.00022756403
0.022746019	0.21276596	0.0079849893	0.00022756403
0.022942955	0.22668579	0.0085531743	0.00022756403
0.02313989	0.22630835	0.0084748678	0.00022756403
0.023336826	0.20083682	0.007471886	0.0002275633
0.02353376	0.2278481	0.0085121254	0.00022756403
0.023730695	0.19402985	0.0071073025	0.00022756403
0.023927631	0.21931034	0.0081064776	0.0002275625
0.024124566	0.21179625	0.0077256593	0.00022756403
0.024321502	0.22654155	0.0082624136	0.00022756179
0.024518436	0.19463088	0.0071040518	0.0002275625
0.024715371	0.19367589	0.0070041209	0.0002275625
0.024912307	0.19286658	0.0069815051	0.0002275625
0.025109243	0.20716113	0.0073782676	0.0002275625
0.025306178	0.18111254	0.0064843721	0.00022756179
0.025503112	0.1724138	0.0061351517	0.0002275625
0.025700048	0.15756035	0.0055917772	0.0002275625
0.025896983	0.16030534	0.0056882906	0.0002275625
0.026093919	0.17980295	0.0062807715	0.00022756097
0.026290854	0.16749379	0.0058713881	0.00022756179
0.026487788	0.15609756	0.0054267878	0.0002275625
0.026684724	0.15403423	0.0053627747	0.00022756097
0.026881659	0.16565165	0.0057587884	0.0002275625
0.027078595	0.16706444	0.0057489024	0.00022756097
0.027275531	0.15884477	0.0054891631	0.00022756179
0.027472464	0.16414435	0.0055793612	0.00022756097
0.0276694	0.1713948	0.0058681909	0.00022756097
0.027866336	0.14733179	0.0049978076	0.00022756097
0.028063271	0.12790698	0.004340623	0.00022756097
0.028260207	0.15967366	0.0054291529	0.00022756026
0.028457141	0.1627385	0.0054319967	0.00022756097
0.028654076	0.16458569	0.0055242493	0.00022756097
0.028851012	0.17449665	0.0058162273	0.00022756097
0.029047947	0.14221725	0.0047400366	0.00022756097
0.029244883	0.15860517	0.0052989642	0.00022756026
0.029441817	0.15359478	0.0050515668	0.00022756097
0.029638752	0.11758242	0.0038769015	0.00022755946
0.029835688	0.14778857	0.0048341993	0.00022756097
0.030032624	0.13118279	0.0042833881	0.00022755946
0.030229559	0.16017316	0.0052516651	0.00022755875
0.030426493	0.12234043	0.0039701783	0.00022755946
0.030623429	0.12034079	0.0039093676	0.00022755946
0.030820364	0.13519092	0.0043257875	0.00022755946
0.0310173	0.16088328	0.0051981807	0.00022755946
0.031214235	0.12551868	0.0040252591	0.00022755946
0.031411171	0.11704312	0.0037316747	0.00022755875
0.031608105	0.11685625	0.0037398604	0.00022755571
0.031805038	0.13953489	0.0044205086	0.00022756017
0.032001976	0.12335692	0.0039068004	0.00022755875
0.03219891	0.10050251	0.003170165	0.00022756017
0.032395847	0.13486513	0.004246871	0.00022755875
0.032592781	0.12015889	0.003771683	0.00022755875
0.032789715	0.12622309	0.0039330143	0.00022756017
0.032986652	0.1182266	0.0036951804	0.00022755571
0.033183586	0.10613437	0.003296549	0.00022755713
0.033380523	0.12331407	0.0038134076	0.00022755875
0.033577457	0.11560693	0.0035740093	0.00022755571
0.033774391	0.12488084	0.0038394441	0.00022755713
0.033971328	0.1221374	0.0037577825	0.00022755571
0.034168262	0.12677389	0.0038829034	0.00022756017
0.0343652	0.12252592	0.0037470625	0.00022755571
0.034562133	0.12349118	0.0037492334	0.00022755571
0.034759067	0.11966605	0.0036300286	0.00022756017
0.034956004	0.14444445	0.0043805041	0.00022755571
0.035152938	0.11050228	0.0033240791	0.00022755713
0.035349876	0.13594891	0.0040904647	0.00022755571
0.035546809	0.13883847	0.0041682078	0.00022755571
0.035743743	0.11594203	0.0034739387	0.00022755713
0.035940681	0.10852018	0.0032361334	0.00022755571
0.036137614	0.11190053	0.0033219089	0.00022755713
0.036334552	0.10301954	0.0030570349	0.00022755266
0.036531486	0.11199295	0.0033123933	0.00022755266
0.036728419	0.10405644	0.0030753645	0.00022755713
0.036925357	0.11130435	0.0032693536	0.00022755571
0.037122291	0.10512598	0.0030858836	0.00022755713
0.037319228	0.11611785	0.0034053575	0.00022755571
0.037516162	0.099236645	0.0028776859	0.00022755266
0.037713096	0.11568123	0.0033731442	0.00022755713
0.037910033	0.10306644	0.0029960326	0.00022755266
0.038106967	0.11026294	0.003197931	0.00022755409
0.038303904	0.10379747	0.0030024629	0.00022755266
0.038500838	0.089850247	0.0025799721	0.00022755266
0.038697772	0.11818182	0.0033868214	0.00022755409
0.038894709	0.102649	0.0029415209	0.00022755266
0.039091643	0.11414392	0.0032704705	0.00022755409
0.03928858	0.096721314	0.002757696	0.00022755266
0.039485514	0.10804224	0.0030674636	0.00022755266
0.039682448	0.13160032	0.0037383209	0.00022755409
0.039879385	0.10522088	0.0029709835	0.00022755266
0.040076319	0.1256	0.0035407094	0.00022755409
0.040273257	0.12279294	0.0034668944	0.00022754962
0.04047019	0.11058075	0.0031075133	0.00022754962
0.040667124	0.094519459	0.0026525452	0.00022755409
0.040864062	0.1078968	0.0030059379	0.00022755266
0.041060995	0.10497667	0.0029161547	0.00022755409
0.041257933	0.096723869	0.0026904808	0.00022754962
0.041454867	0.12140078	0.0033755526	0.00022755266
0.0416518	0.10116731	0.0028114181	0.00022755409
0.041848738	0.099236645	0.0027309777	0.00022754962
0.042045671	0.11330798	0.0031141746	0.00022754801
0.042242609	0.1148289	0.0031560075	0.00022754657
0.042439543	0.10022779	0.0027519057	0.00022754353
0.042636476	0.092411719	0.0025221328	0.00022754801
0.042833414	0.097138554	0.0026554293	0.00022754657
0.043030348	0.10754294	0.0029286796	0.00022754801
0.043227285	0.092319056	0.0024991147	0.00022754353
0.043424219	0.072218128	0.0019505277	0.00022754353
0.043621153	0.11029412	0.0029808122	0.00022754801
0.04381809	0.10337243	0.0027890559	0.00022754353
0.044015024	0.10314558	0.0027801592	0.00022754495
0.044211961	0.11376812	0.0030533739	0.00022754353
0.044408895	0.087769784	0.0023447091	0.00022754353
0.044605829	0.095545977	0.0025514453	0.00022754495
0.044802766	0.10114778	0.0026996236	0.00022754353
0.0449997	0.096359745	0.0025646316	0.00022754495
0.045196638	0.10318021	0.0027332166	0.00022754353
0.045393571	0.094326243	0.0025030179	0.00022754353
0.045590505	0.12193413	0.0032188334	0.00022754495
0.045787442	0.091164097	0.0024045417	0.00022754048
0.045984376	0.096527778	0.002534651	0.00022754191
0.046181314	0.11103401	0.0029159274	0.00022754353
0.046378247	0.083563536	0.0021864576	0.00022754048
0.046575181	0.086325966	0.0022591171	0.00022754191
0.046772119	0.093899928	0.0024484568	0.00022754353
0.046969052	0.093941458	0.0024420477	0.00022754495
0.04716599	0.083162919	0.0021619219	0.00022754048
0.047362924	0.090970352	0.0023520717	0.00022754048
0.047559857	0.092493296	0.0023854061	0.00022754495
0.047756795	0.087306917	0.002252856	0.00022754048
0.047953729	0.097250171	0.0025088936	0.00022754495
0.048150666	0.074319839	0.0019051541	0.00022754048
0.0483476	0.080291972	0.0020587251	0.00022754048
0.048544534	0.092337914	0.0023530917	0.00022754191
0.048741471	0.070533946	0.0018021037	0.00022753744
0.048938405	0.075570032	0.0019188249	0.00022754191
0.049135342	0.085190043	0.0021695853	0.00022754048
0.049332276	0.085547633	0.0021687672	0.00022753744
0.04952921	0.080206983	0.0020303088	0.00022753887
0.049726147	0.075435206	0.001906866	0.00022753744
0.049923081	0.082963899	0.002078319	0.00022754191
0.050120018	0.0971867	0.0024467392	0.00022753744
0.050316952	0.079974405	0.0020136025	0.00022753744
0.050513886	0.074285716	0.0018615127	0.00022753887
0.050710823	0.088142045	0.0022096108	0.00022753744
0.050907757	0.10428306	0.0025876162	0.00022753887
0.051104695	0.097439103	0.0024258466	0.00022753744
0.051301628	0.10362048	0.002578778	0.00022753744
0.051498562	0.0886392	0.0022041637	0.00022753887
0.0516955	0.087198518	0.0021591377	0.00022753744
0.051892433	0.06670747	0.0016406461	0.00022753887
0.052089371	0.081481479	0.0020146784	0.0002275344
0.052286305	0.094110504	0.0023090574	0.00022753744
0.052483238	0.088145897	0.0021634377	0.00022753583
0.052680176	0.090577506	0.0022237939	0.0002275344
0.052877109	0.092401214	0.0022683293	0.00022753887
0.053074047	0.093429774	0.0022844283	0.0002275344
0.053270981	0.074029848	0.0017994654	0.00022753744
0.053467914	0.090095468	0.0021909792	0.00022753887
0.053664852	0.084859587	0.0020872029	0.0002275344
0.053861786	0.099071205	0.0024550089	0.00022753583
0.054058723	0.088418432	0.0021957124	0.0002275344
0.054255657	0.093382806	0.0023121084	0.0002275344
0.054452591	0.081926204	0.0020383596	0.00022753583
0.054649528	0.081097938	0.0020156044	0.0002275344
0.054846462	0.087147333	0.0021712829	0.00022753583
0.055043399	0.10333963	0.0025830714	0.00022753136
0.055240333	0.10296904	0.0025768657	0.0002275344
0.055437267	0.079395086	0.0019834209	0.00022753583
0.055634204	0.066332914	0.0016495064	0.00022753136
0.055831138	0.072830908	0.0018218084	0.00022753279
0.056028076	0.068596601	0.0017092417	0.00022753136
0.056225009	0.093552463	0.0023408697	0.00022753136
0.056421943	0.076579452	0.0019232954	0.00022753279
0.05661888	0.079824008	0.0019906017	0.00022753136
0.056815814	0.096165933	0.0024003889	0.00022753279
0.057012752	0.081012659	0.0020268841	0.00022753136
0.057209685	0.067550503	0.0016873193	0.00022752832
0.057406619	0.070075758	0.0017490109	0.00022753279
0.057603557	0.09033481	0.0022595455	0.00022753136
0.05780049	0.074050635	0.0018528184	0.00022753279
0.057997428	0.091708541	0.0022869683	0.00022752832
0.058194362	0.082070708	0.0020508817	0.00022752832
0.058391295	0.070120022	0.001751101	0.00022752974
0.058588233	0.062030077	0.0015424468	0.00022752832
0.058785167	0.073417723	0.001837281	0.00022752974
0.058982104	0.067253299	0.001675897	0.00022752832
0.059179038	0.078517586	0.001957936	0.00022752832
0.059375972	0.078036502	0.0019471581	0.00022752974
0.059572909	0.070175439	0.0017460325	0.00022752528
0.059769843	0.091997482	0.002297678	0.00022752974
0.05996678	0.089838907	0.0022265064	0.00022752528
0.060163714	0.088216759	0.0022034601	0.00022752528
0.060360648	0.08416459	0.0020915642	0.00022752974
0.060557585	0.079524107	0.0019782744	0.00022752528
0.060754519	0.094586186	0.0023490719	0.0002275267
0.060951456	0.069912612	0.0017367911	0.00022752528
0.06114839	0.07405103	0.0018364924	0.00022752528
0.061345324	0.080323786	0.0019939095	0.0002275267
0.061542261	0.075155281	0.001863547	0.00022752528
0.061739195	0.090174131	0.0022380145	0.0002275267
0.061936133	0.081835091	0.0020275749	0.00022752528
0.062133066	0.081064358	0.0020058004	0.00022752528
0.06233	0.078769229	0.0019439788	0.00022752528
0.062526934	0.074165635	0.0018348661	0.0002275251
0.062723875	0.052729528	0.0013035993	0.00022751919
0.062920809	0.064734899	0.0015973939	0.00022752528
0.063117743	0.06385617	0.0015790921	0.00022751919
0.063314676	0.070379436	0.001731116	0.00022751919
0.06351161	0.06841784	0.0016825987	0.00022752814
0.063708551	0.071122013	0.0017513705	0.00022751919
0.063905485	0.075401731	0.0018648757	0.00022751919
0.064102419	0.070121951	0.0017224131	0.00022751919
0.064299352	0.080220453	0.0019753687	0.00022752528
0.064496286	0.076266013	0.0018745495	0.00022752205
0.064693227	0.074119076	0.001817484	0.00022751919
0.064890161	0.083030306	0.0020345827	0.00022751919
0.065087095	0.070861332	0.0017427959	0.00022752528
0.065284029	0.059254736	0.001454745	0.00022752528
0.065480962	0.078692496	0.0019266927	0.00022752205
0.065677904	0.06799037	0.0016587565	0.00022752528
0.065874837	0.066545673	0.0016282944	0.00022751919
0.066071771	0.054786272	0.0013346524	0.00022751919
0.066268705	0.0713422	0.0017448717	0.00022751919
0.066465639	0.073449731	0.0017924279	0.00022752205
0.06666258	0.075449102	0.001837262	0.00022751919
0.066859514	0.07692308	0.0018838859	0.00022751919
0.067056447	0.064209275	0.0015566529	0.00022751919
0.067253381	0.070531979	0.0017157242	0.00022751919
0.067450315	0.076509267	0.0018612479	0.00022751596
0.067647256	0.076646708	0.0018662666	0.00022751919
0.06784419	0.06115108	0.0014884978	0.00022751919
0.068041123	0.064497039	0.00156056	0.00022751311
0.068238057	0.069946654	0.0016946528	0.00022751311
0.068434991	0.075460486	0.0018298287	0.00022752205
0.068631932	0.070921987	0.0017155556	0.00022751311
0.068828866	0.072368421	0.0017616902	0.00022751311
0.0690258	0.096434832	0.0022972163	0.00022751311
0.069222733	0.083825268	0.0020283496	0.00022751311
0.069419667	0.069148935	0.001673006	0.00022751596
0.069616608	0.072098479	0.0017368795	0.00022751311
0.069813542	0.069289491	0.0016710645	0.00022751311
0.070010476	0.073027089	0.0017622091	0.00022751311
0.07020741	0.069698758	0.0016850386	0.00022751311
0.070404343	0.061236281	0.0014641178	0.00022752205
0.070601285	0.065966144	0.0015858467	0.00022751311
0.070798218	0.077861711	0.001868399	0.00022751311
0.070995152	0.07331378	0.0017677722	0.00022751311
0.071192086	0.064214826	0.001542966	0.00022751311
0.071389019	0.049482163	0.0011788909	0.00022751596
0.071585961	0.068445474	0.0016396665	0.00022750701
0.071782894	0.069942199	0.0016732492	0.00022751311
0.071979828	0.079512477	0.0019070462	0.00022751311
0.072176762	0.072622478	0.0017351898	0.00022751311
0.072373696	0.073352434	0.0017481978	0.00022751596
0.072570637	0.065507248	0.001568206	0.00022751311
0.072767571	0.051733941	0.0012258634	0.00022750701
0.072964504	0.052662037	0.0012594669	0.00022750701
0.073161438	0.069846675	0.0016572389	0.00022751311
0.073358372	0.058352403	0.0013874719	0.00022750988
0.073555313	0.068548389	0.0016368903	0.00022750701
0.073752247	0.059920859	0.001417187	0.00022751311
0.073949181	0.06678082	0.0015873191	0.00022750701
0.074146114	0.055461235	0.0013114866	0.00022751311
0.074343048	0.059897318	0.0014227364	0.00022750988
0.074539989	0.058489494	0.0013858186	0.00022750701
0.074736923	0.062604807	0.0014722677	0.00022750701
0.074933857	0.056346044	0.0013364371	0.00022750701
0.07513079	0.074324325	0.0017556095	0.00022750701
0.075327724	0.080518015	0.001902012	0.0002275038
0.075524665	0.084507041	0.0019973665	0.00022750701
0.075721599	0.062917598	0.0014767071	0.00022750093
0.075918533	0.071509011	0.001688819	0.00022750701
0.076115467	0.062115278	0.0014619636	0.00022750701
0.0763124	0.063651592	0.0014959928	0.00022750988
0.076509342	0.066184647	0.0015531641	0.00022750701
0.076706275	0.06440866	0.0015104354	0.00022750701
0.076903209	0.061098654	0.0014388365	0.00022750701
0.077100143	0.078787878	0.0018415721	0.00022750093
0.077297077	0.063192904	0.0014800784	0.0002275038
0.077494018	0.071190208	0.0016716642	0.00022750093
0.077690952	0.069818579	0.0016304017	0.00022750093
0.077887885	0.0545961	0.0012815895	0.00022750093
0.078084819	0.046840958	0.0010857569	0.00022750093
0.078281753	0.057787564	0.0013485905	0.0002275038
0.078478694	0.079251513	0.0018515495	0.00022750093
0.078675628	0.06171491	0.0014349017	0.00022750093
0.078872561	0.065600879	0.0015325473	0.00022750093
0.079069495	0.06212534	0.0014423877	0.00022750093
0.079266429	0.060556464	0.001407152	0.0002275038
0.07946337	0.074154854	0.0017239695	0.00022750093
0.079660304	0.078961603	0.001828522	0.00022750093
0.079857238	0.057345714	0.0013327831	0.00022750093
0.080054171	0.061654948	0.0014269217	0.00022750093
0.080251105	0.064305179	0.001494763	0.0002275038
0.080448046	0.064690024	0.0014954874	0.00022749485
0.08064498	0.059957173	0.00137985	0.00022750093
0.080841914	0.055284552	0.0012804808	0.00022750093
0.081038848	0.06223176	0.0014347128	0.00022749485
0.081235781	0.063852817	0.0014781575	0.00022749772
0.081432723	0.054429028	0.0012502599	0.00022749485
0.081629656	0.086400002	0.0019867842	0.00022749485
0.08182659	0.076593466	0.0017655076	0.00022749485
0.082023524	0.067056946	0.0015396574	0.00022749485
0.082220457	0.074291825	0.0017109941	0.00022749772
0.082417399	0.074666664	0.0017174048	0.00022749485
0.082614332	0.081426293	0.0018717594	0.00022749485
0.082811266	0.082846522	0.0019021487	0.00022749485
0.0830082	0.062105265	0.0014173674	0.00022749485
0.083205134	0.062896408	0.0014386402	0.00022749163
0.083402075	0.056524035	0.0012927179	0.00022749485
0.083599009	0.051623203	0.0011843141	0.00022749485
0.083795942	0.061909758	0.0014114979	0.00022748877
0.083992876	0.062860139	0.0014322723	0.00022749485
0.08418981	0.070157066	0.0015984551	0.00022749772
0.084386751	0.068550497	0.0015615262	0.00022748877
0.084583685	0.065865137	0.0014987863	0.00022749485
0.084780619	0.058302969	0.0013234511	0.00022749485
0.084977552	0.060542796	0.0013764874	0.00022748877
0.085174486	0.064632885	0.0014627589	0.00022749163
0.085371427	0.062922515	0.0014281312	0.00022748877
0.085568361	0.056613483	0.0012778678	0.00022748877
0.085765295	0.051954731	0.0011716492	0.00022748877
0.085962228	0.069864444	0.0015882845	0.00022748877
0.086159162	0.064366631	0.0014541039	0.00022748555
0.086356103	0.059633028	0.0013397749	0.00022748877
0.086553037	0.067761809	0.0015287944	0.00022748877
0.086749971	0.071609952	0.0016070113	0.00022748877
0.086946905	0.055041153	0.0012418446	0.00022748268
0.087143838	0.059807401	0.0013396181	0.00022749163
0.08734078	0.055073943	0.0012369344	0.00022748877
0.087537713	0.058257345	0.0013043471	0.00022748268
0.087734647	0.054628223	0.0012224761	0.00022748877
0.087931581	0.05284553	0.0011847939	0.00022748877
0.088128515	0.05725766	0.0012767001	0.00022748555
0.088325456	0.060926486	0.001360707	0.00022748268
0.08852239	0.059240505	0.0013265663	0.00022748268
0.088719323	0.054917622	0.0012208726	0.00022748268
0.088916257	0.068136275	0.0015187033	0.00022748268
0.089113191	0.06143856	0.0013669583	0.00022748555
0.089310132	0.055444557	0.0012330636	0.00022748268
0.089507066	0.05926295	0.0013161507	0.00022748268
0.089703999	0.06001984	0.0013306258	0.00022748268
0.089900933	0.052499998	0.0011683033	0.00022748268
0.090097867	0.062469259	0.0013797418	0.00022747947
0.090294808	0.0663011	0.0014741863	0.00022748268
0.090491742	0.067587569	0.0014948801	0.00022748268
0.090688676	0.060306475	0.0013347248	0.00022748268
0.090885609	0.058736425	0.0012986468	0.0002274766
0.091082543	0.063023143	0.0013924564	0.00022748268
0.091279477	0.069355629	0.001532259	0.00022748555
0.091476418	0.063453026	0.0014010654	0.0002274766
0.091673352	0.065429688	0.001439782	0.00022748268
0.091870286	0.050073639	0.001103319	0.0002274766
0.092067219	0.061704211	0.0013592654	0.0002274766
0.092264153	0.057935733	0.0012723602	0.00022747947
0.092461094	0.050731707	0.0011144107	0.0002274766
0.092658028	0.065036677	0.0014320468	0.0002274766
0.092854962	0.056603774	0.0012387048	0.0002274766
0.093051895	0.046882551	0.0010239648	0.0002274766
0.093248829	0.057795048	0.0012679084	0.00022747337
0.09344577	0.059932336	0.0013116386	0.0002274766
0.093642704	0.054907676	0.0012035584	0.00022747052
0.093839638	0.05882353	0.0012857893	0.0002274766
0.094036572	0.062530063	0.0013654578	0.0002274766
0.094233505	0.062620424	0.001368174	0.00022747947
0.094430447	0.057950191	0.001262038	0.00022747052
0.09462738	0.057004832	0.001247006	0.00022747052
0.094824314	0.062649451	0.0013639462	0.00022747052
0.095021248	0.04930589	0.0010730636	0.00022747052
0.095218182	0.061399333	0.0013337507	0.00022747337
0.095415123	0.062589586	0.0013619915	0.00022747052
0.095612057	0.060505003	0.0013141825	0.00022747052
0.09580899	0.063718498	0.0013836619	0.00022747052
0.096005924	0.04832536	0.0010510292	0.00022747052
0.096202858	0.047889996	0.0010369587	0.00022747337
0.096399799	0.060520094	0.0013103986	0.00022747052
0.096596733	0.049388524	0.0010655897	0.00022746444
0.096793666	0.062381852	0.0013504401	0.00022747052
0.0969906	0.053402647	0.001155321	0.00022746444
0.097187534	0.068331763	0.0014776043	0.00022747337
0.097384475	0.054322153	0.0011752326	0.00022746444
0.097581409	0.0606203	0.0013082847	0.00022747052
0.097778343	0.06375058	0.0013694608	0.00022746444
0.097975276	0.05882353	0.0012700974	0.00022746444
0.09817221	0.050373133	0.0010817854	0.00022746729
0.098369151	0.058934465	0.0012737749	0.00022746444
0.098566085	0.0532654	0.0011404911	0.00022746444
0.098763019	0.05386417	0.0011597789	0.00022746444
0.098959953	0.068917669	0.001476138	0.00022746444
0.099156886	0.060508084	0.0012951399	0.00022746121
0.099353828	0.056956116	0.0012252897	0.00022746444
0.099550761	0.059479553	0.0012766653	0.00022745834
0.099747695	0.053941909	0.001151839	0.00022745834
0.099944629	0.055504162	0.0011879149	0.00022745834
0.10014156	0.051954024	0.0011070448	0.00022746121
0.1003385	0.056760497	0.0012134161	0.00022745834
0.10053544	0.048623852	0.0010362566	0.00022746444
0.10073237	0.052044611	0.0011161522	0.00022745834
0.1009293	0.054537121	0.0011618778	0.00022746444
0.10112624	0.044545453	0.00094427349	0.00022746121
0.10132318	0.053308822	0.0011375261	0.00022746444
0.10152011	0.05497501	0.0011663333	0.00022745834
0.10171705	0.050754458	0.0010798504	0.00022745834
0.10191398	0.05788514	0.0012302067	0.00022745834
0.10211091	0.052078575	0.0011081214	0.00022746121
0.10230786	0.056389268	0.0011968889	0.00022745834
0.10250479	0.054249547	0.0011482624	0.00022745226
0.10270172	0.05990991	0.0012660747	0.00022745226
0.10289866	0.070615031	0.001502389	0.00022745226
0.10309559	0.078519858	0.001662796	0.00022745512
0.10329253	0.073436081	0.0015583945	0.00022745226
0.10348947	0.092376679	0.0019504355	0.00022745834
0.1036864	0.11531532	0.0024421113	0.00022745226
0.10388333	0.10497981	0.002218212	0.00022745226
0.10408027	0.10796221	0.002284287	0.00022746121
0.10427721	0.10134529	0.0021405688	0.00022745226
0.10447414	0.12606551	0.002664671	0.00022745226
0.10467108	0.1127451	0.0023746046	0.00022745226
0.10486801	0.09700492	0.0020455674	0.00022745226
0.10506494	0.10731708	0.0022543662	0.00022745512
0.10526188	0.10289532	0.0021663136	0.00022745226
0.10545882	0.089973144	0.0018985085	0.00022744617
0.10565575	0.086397871	0.0018134218	0.00022745226
0.10585269	0.0821492	0.0017257716	0.00022745226
0.10604962	0.077738516	0.0016287678	0.00022745512
0.10624656	0.06858407	0.0014374296	0.00022744617
0.10644349	0.070609003	0.0014781735	0.00022744617
0.10664043	0.069572873	0.0014551515	0.00022745226
0.10683736	0.073418841	0.0015392121	0.00022744617
0.1070343	0.058978874	0.0012323722	0.00022744904
0.10723124	0.058154788	0.0012110471	0.00022744617
0.10742817	0.062995598	0.0013170805	0.00022744617
0.1076251	0.072017357	0.0014952347	0.00022744617
0.10782204	0.077362634	0.0016160738	0.00022744617
0.10801897	0.070397899	0.0014670651	0.00022744904
0.10821591	0.078336984	0.0016335903	0.00022744617
0.10841285	0.06015693	0.0012512483	0.00022744617
0.10860978	0.077888362	0.0016152549	0.00022744009
0.10880671	0.071992978	0.0015031	0.00022744009
0.10900365	0.079413034	0.001644923	0.00022744904
0.10920059	0.065715522	0.0013614871	0.00022744009
0.10939752	0.074620388	0.0015492223	0.00022744009
0.10959446	0.079481639	0.0016473492	0.00022744009
0.10979139	0.074283235	0.0015432974	0.00022744009
0.10998832	0.085297897	0.0017609114	0.00022744296
0.11018527	0.071151361	0.0014729706	0.00022744009
0.1103822	0.084015511	0.001739063	0.00022744009
0.11057913	0.075536482	0.0015599439	0.00022743401
0.11077607	0.08476764	0.001753559	0.00022744009
0.110973	0.095400341	0.0019640287	0.00022743687
0.11116994	0.087644294	0.0018076522	0.00022743401
0.11136688	0.10535332	0.0021753698	0.00022743401
0.11156381	0.098256059	0.0020217143	0.00022743401
0.11176074	0.10555556	0.0021771323	0.00022743401
0.11195768	0.11662426	0.0023971279	0.00022744296
0.11215462	0.10132536	0.0020903288	0.00022743401
0.11235155	0.14006791	0.0028811651	0.00022743401
0.11254849	0.17517941	0.0035944863	0.00022743401
0.11274542	0.20999153	0.0043156622	0.00022743401
0.11294235	0.32711074	0.0067322911	0.00022743687
0.11313929	0.54168427	0.011137207	0.00022743401
0.11333623	1.0688208	0.021887282	0.00022743401
0.11353316	1.8270613	0.037558567	0.00022742792
0.1137301	3.3315127	0.068272568	0.00022743401
0.11392703	5.3815899	0.11005716	0.00022743079
0.11412397	8.4762707	0.17367834	0.00022742792
0.1143209	12.13451	0.24874374	0.00022742792
0.11451784	16.199665	0.33138436	0.00022742792
0.11471477	20.563995	0.42120075	0.00022742792
0.11491171	23.712095	0.4825615	0.00022743079
0.11510865	26.402338	0.53933644	0.00022742792
0.11530558	27.272274	0.55642146	0.00022742792
0.11550251	27.166039	0.55553555	0.00022742792
0.11569945	25.875259	0.52672809	0.00022742792
0.11589638	24.447248	0.49725011	0.00022743079
0.11609332	22.216618	0.45169133	0.00022742792
0.11629026	20.277731	0.41252208	0.00022742792
0.11648719	18.092186	0.3678208	0.00022742184
0.11668412	15.923204	0.32350984	0.00022742184
0.11688106	13.968517	0.28425366	0.00022742471
0.117078	11.717105	0.23753655	0.00022742184
0.11727493	10.003684	0.2023339	0.00022742184
0.11747187	8.1207533	0.16424046	0.00022742184
0.1176688	6.392374	0.12938495	0.00022742184
0.11786573	4.7083335	0.095590182	0.00022742471
0.11806267	3.2490814	0.065625064	0.00022742184
0.11825961	2.1818926	0.044141468	0.00022742184
0.11845654	1.3824006	0.027825853	0.00022742184
0.11865348	0.91819292	0.018515991	0.00022742184
0.11885041	0.66489142	0.013451452	0.00022741863
0.11904735	0.49554655	0.0099655846	0.00022741576
0.11924428	0.4263629	0.0085948221	0.00022741576
0.11944122	0.36731392	0.007383307	0.00022741576
0.11963815	0.30625507	0.006167816	0.00022741576
0.11983509	0.29449579	0.0058984021	0.00022741863
0.12003203	0.27140549	0.005449702	0.00022741576
0.12022896	0.22348639	0.0045004655	0.00022741576
0.12042589	0.2145749	0.004312817	0.00022741576
0.12062283	0.20440882	0.0040876265	0.00022741576
0.12081976	0.19775371	0.0039562718	0.00022741863
0.1210167	0.1904	0.0038034127	0.00022741576
0.12121364	0.18537964	0.0037212356	0.00022740968
0.12141057	0.15728542	0.0031380074	0.00022740968
0.1216075	0.14881669	0.0029760676	0.00022741576
0.12180444	0.14291401	0.0028470627	0.00022741254
0.12200138	0.14507772	0.0028920213	0.00022740968
0.12219831	0.14416933	0.0028766454	0.00022741576
0.12239525	0.11920792	0.0023680381	0.00022741576
0.12259218	0.13583699	0.0027106688	0.00022740968
0.12278911	0.12455232	0.0024805067	0.00022741254
0.12298606	0.11358221	0.0022591385	0.00022740968
0.12318299	0.1381631	0.002744589	0.00022740968
0.12337992	0.13142408	0.0025989038	0.00022740968
0.12357686	0.11543038	0.0022944945	0.00022740968
0.12377379	0.11853023	0.002351816	0.00022740646
0.12397073	0.12238453	0.0024275889	0.00022740968
0.12416767	0.10761979	0.0021283037	0.00022740359
0.1243646	0.11089341	0.0021907424	0.00022740359
0.12456153	0.10607255	0.0021019019	0.00022740359
0.12475847	0.10854232	0.0021440878	0.00022740646
0.12495541	0.099173553	0.0019631998	0.00022739463
0.12515233	0.098905392	0.0019513929	0.00022740323
0.12534928	0.089918256	0.0017701838	0.00022739751
0.12554622	0.10285491	0.0020295649	0.00022739751
0.12574315	0.095608242	0.0018807191	0.00022739751
0.12594008	0.091051191	0.0017959279	0.00022739751
0.12613702	0.10649048	0.0020951394	0.00022740968
0.12633395	0.082261212	0.0016201216	0.00022740968
0.12653089	0.090627417	0.0017792477	0.00022739751
0.12672782	0.096986093	0.0019023269	0.00022739751
0.12692475	0.093068533	0.0018323305	0.00022739751
0.12712169	0.086523734	0.0016886442	0.00022740323
0.12731864	0.092534989	0.0018207091	0.00022739751
0.12751557	0.084647939	0.0016561517	0.00022739751
0.1277125	0.085769229	0.0016775687	0.00022739751
0.12790944	0.089996137	0.0017645051	0.00022739751
0.12810637	0.080738179	0.0015791995	0.00022739751
0.1283033	0.086239941	0.0016843831	0.00022739751
0.12850024	0.086623229	0.0016919243	0.00022739751
0.12869717	0.079923518	0.0015587283	0.00022738535
0.12889411	0.080676146	0.0015773077	0.00022739751
0.12909104	0.081780143	0.0015909366	0.00022740323
0.12928799	0.077453986	0.0015126757	0.00022739751
0.12948492	0.080712393	0.0015671052	0.00022739751
0.12968186	0.081390902	0.001587121	0.00022738535
0.12987879	0.076161459	0.0014823515	0.00022738535
0.13007572	0.06961786	0.0013503762	0.00022738535
0.13027266	0.082572296	0.0016068362	0.00022738535
0.13046959	0.074074075	0.0014359081	0.00022738535
0.13066652	0.070913918	0.0013772714	0.00022738535
0.13086346	0.074480154	0.0014442661	0.00022739751
0.13106039	0.070142537	0.0013546236	0.00022740323
0.13125734	0.070342205	0.0013673373	0.00022738535
0.13145427	0.077761084	0.001503053	0.00022738535
0.13165121	0.06892655	0.0013336367	0.00022738535
0.13184814	0.063694268	0.0012290657	0.00022738535
0.13204508	0.073518381	0.0014198156	0.00022738535
0.13224201	0.065332323	0.0012657879	0.00022738535
0.13243894	0.071001492	0.001368796	0.00022738535
0.13263588	0.064083457	0.0012330826	0.00022738535
0.13283281	0.06955871	0.0013413124	0.00022738535
0.13302974	0.066242516	0.0012775804	0.00022739106
0.13322669	0.069776118	0.0013437895	0.00022738535
0.13342363	0.068198666	0.0013093681	0.00022738535
0.13362056	0.073152617	0.00140582	0.00022738535
0.13381749	0.072307117	0.0013923122	0.00022737318
0.13401443	0.074776784	0.0014386059	0.00022737318
0.13421136	0.070129871	0.0013471936	0.00022738535
0.1344083	0.070007369	0.0013400709	0.00022737318
0.13460523	0.068736143	0.001317549	0.00022737318
0.13480216	0.065427512	0.0012575643	0.00022737318
0.1349991	0.071481481	0.0013716806	0.0002273789
0.13519605	0.064210139	0.0012229038	0.00022737318
0.13539298	0.062939651	0.0012070335	0.00022737318
0.13558991	0.064102568	0.0012232497	0.00022737318
0.13578685	0.070562296	0.0013488901	0.00022737318
0.13598378	0.061882094	0.0011803515	0.00022737318
0.13618071	0.071428575	0.0013666822	0.00022737318
0.13637765	0.061515927	0.0011730473	0.00022737318
0.13657458	0.062842526	0.0011971503	0.00022737318
0.13677152	0.065233238	0.0012413104	0.00022737318
0.13696845	0.057776164	0.0010975101	0.00022737318
0.13716538	0.064622127	0.0012309063	0.0002273789
0.13736233	0.056714233	0.0010810959	0.00022737318
0.13755926	0.063222542	0.0011980254	0.00022737318
0.1377562	0.075382374	0.0014346412	0.00022737318
0.13795313	0.094702467	0.0018002485	0.00022736102
0.13815007	0.072228238	0.0013689346	0.00022736102
0.138347	0.076142132	0.0014459139	0.00022737318
0.13854393	0.06582734	0.0012444719	0.00022737318
0.13874087	0.073818184	0.0014033108	0.00022736102
0.1389378	0.066425994	0.0012580829	0.00022736102
0.13913473	0.053027589	0.00099997222	0.00022736673
0.13933168	0.063263841	0.001195578	0.00022737318
0.13952862	0.06642729	0.0012549624	0.00022737318
0.13972555	0.058139537	0.0011045721	0.00022736102
0.13992248	0.05238774	0.00098527689	0.00022736102
0.14011942	0.062746502	0.0011842458	0.00022736102
0.14031635	0.061516453	0.0011596907	0.00022737318
0.14051329	0.049589727	0.00093325257	0.00022736102
0.14071022	0.067097239	0.001266922	0.00022736102
0.14090715	0.059886605	0.0011239122	0.00022736102
0.14110409	0.062120672	0.0011698918	0.00022736673
0.14130104	0.05932809	0.0011179226	0.00022736102
0.14149797	0.06555634	0.0012301785	0.00022736102
0.1416949	0.057821922	0.0010853962	0.00022734885
0.14189184	0.055123676	0.0010324609	0.00022736102
0.14208877	0.056785714	0.0010697047	0.00022736102
0.1422857	0.060616802	0.001137903	0.00022736102
0.14248264	0.064233065	0.0011993153	0.00022736102
0.14267957	0.060283687	0.0011315522	0.00022736102
0.14287651	0.063971877	0.0011958305	0.00022736102
0.14307344	0.061924983	0.0011609856	0.00022735457
0.14327039	0.057624735	0.0010765357	0.00022736102
0.14346732	0.054890923	0.0010259704	0.00022734885
0.14366426	0.064584062	0.0012062567	0.00022734885
0.14386119	0.06388206	0.0011932765	0.00022736102
0.14405812	0.05954466	0.0011109991	0.00022734885
0.14425506	0.062434599	0.0011623553	0.00022734885
0.14445199	0.055769905	0.0010408782	0.00022734885
0.14464892	0.054405056	0.0010157381	0.00022734885
0.14484586	0.060479667	0.0011240618	0.00022734885
0.14504279	0.057182707	0.0010640515	0.00022735457
0.14523974	0.060124394	0.0011139854	0.00022734885
0.14543667	0.060680464	0.0011321398	0.00022733668
0.14563361	0.058313087	0.0010820865	0.00022734885
0.14583054	0.054570735	0.0010135808	0.00022734885
0.14602748	0.051539261	0.00095479831	0.00022734885
0.14622441	0.051228799	0.0009495191	0.00022733668
0.14642134	0.054250173	0.0010051137	0.00022734885
0.14661828	0.054407712	0.0010061567	0.00022733668
0.14681521	0.055112652	0.0010226931	0.00022733668
0.14701214	0.053121768	0.00098328548	0.0002273424
0.14720909	0.060971409	0.0011281838	0.00022733668
0.14740603	0.062047571	0.0011485257	0.00022733668
0.14760296	0.059604906	0.0010965634	0.00022733668
0.14779989	0.054426454	0.0010065141	0.00022733668
0.14799683	0.057871167	0.0010708773	0.00022733668
0.14819376	0.043956045	0.00081136118	0.00022733668
0.1483907	0.046901748	0.00086431793	0.00022733668
0.14858763	0.056841388	0.0010451374	0.00022733668
0.14878456	0.051528685	0.00095138955	0.00022733668
0.1489815	0.055593219	0.0010200671	0.0002273424
0.14917845	0.055877343	0.0010275899	0.00022733668
0.14937538	0.050818555	0.00093522097	0.00022733668
0.14957231	0.050457161	0.00092505151	0.00022733668
0.14976925	0.05821918	0.0010739559	0.00022733668
0.14996618	0.048870914	0.00089391385	0.00022733668
0.15016311	0.048474576	0.00088920729	0.00022732452
0.15036005	0.042842571	0.00078654441	0.00022732452
0.15055698	0.052560646	0.00096148776	0.00022733668
0.15075392	0.044867437	0.00082400895	0.00022733668
0.15095085	0.055015095	0.0010035931	0.00022733024
0.1511478	0.050858874	0.00092946121	0.00022732452
0.15134473	0.049712546	0.00091047288	0.00022733668
0.15154167	0.048641395	0.00088762323	0.00022732452
0.1517386	0.046653144	0.00085441553	0.00022732452
0.15193553	0.042866711	0.00078119198	0.00022732452
0.15213247	0.051428571	0.00093959767	0.00022733668
0.1523294	0.04726785	0.00086225249	0.00022732452
0.15252633	0.049983338	0.00090915343	0.00022732452
0.15272327	0.053195048	0.00096962397	0.00022732452
0.1529202	0.05005005	0.00091101514	0.00022733024
0.15311715	0.05331992	0.00097315683	0.00022732452
0.15331408	0.050182786	0.00091163197	0.00022732452
0.15351102	0.050864361	0.00092413655	0.00022732452
0.15370795	0.047587354	0.00086486153	0.00022731235
0.15390489	0.048585691	0.00088300009	0.00022732452
0.15410182	0.052265961	0.00094713678	0.00022732452
0.15429875	0.05049834	0.00091727637	0.00022732452
0.15449569	0.048472777	0.00087992335	0.00022731235
0.15469262	0.048312377	0.00087572448	0.00022731235
0.15488955	0.044466402	0.0008037074	0.00022731809
0.1550865	0.044795785	0.00080973376	0.00022732452
0.15528344	0.056328695	0.0010220315	0.00022731235
0.15548037	0.056641273	0.0010278036	0.00022731235
0.1556773	0.05377049	0.00097048964	0.00022731235
0.15587424	0.052718285	0.00095379591	0.00022731235
0.15607117	0.04340731	0.0007811808	0.00022731235
0.1562681	0.053082757	0.00096065458	0.00022731235
0.15646504	0.053876478	0.00097336079	0.00022732452
0.15666197	0.043165468	0.00077729538	0.00022731235
0.15685891	0.048381824	0.0008715486	0.00022731809
0.15705585	0.056769982	0.0010221304	0.00022731235
0.15725279	0.053700067	0.00096840208	0.00022731235
0.15744972	0.049739923	0.00089365896	0.00022731235
0.15764666	0.044596355	0.00080150343	0.00022731235
0.15784359	0.052131146	0.00094090292	0.00022731235
0.15804052	0.053501945	0.00096011203	0.00022731235
0.15823746	0.055718474	0.0010022338	0.00022731235
0.15843439	0.056020606	0.0010018566	0.00022731235
0.15863132	0.047341116	0.0008491255	0.00022730019
0.15882826	0.059934855	0.0010783318	0.00022731809
0.15902521	0.059146736	0.001060248	0.00022730019
0.15922214	0.059604794	0.0010693085	0.00022730019
0.15941907	0.05837075	0.0010417757	0.00022731235
0.15961601	0.054710262	0.00098126975	0.00022730019
0.15981294	0.04797167	0.00085754175	0.00022730019
0.16000988	0.057308435	0.0010248189	0.00022730019
0.16020681	0.050563607	0.00090422551	0.00022730019
0.16040374	0.049695414	0.00088650559	0.00022730019
0.16060068	0.056415215	0.001009621	0.00022730019
0.16079761	0.047846891	0.0008512176	0.00022730592
0.16099456	0.051036682	0.00090798462	0.00022730019
0.16119149	0.051496621	0.00092036009	0.00022730019
0.16138843	0.051806845	0.00092306326	0.00022730019
0.16158536	0.043575779	0.0007765381	0.00022730019
0.16178229	0.049571019	0.00087974849	0.00022728802
0.16197923	0.040842373	0.00072597136	0.00022728802
0.16217616	0.050222505	0.0008919877	0.00022728802
0.1623731	0.05221267	0.00092795648	0.00022728802
0.16257003	0.050777532	0.00090121891	0.00022728802
0.16276696	0.054955527	0.00097613997	0.00022730592
0.16296391	0.049237613	0.00087398913	0.00022728802
0.16316085	0.050300539	0.0008914909	0.00022730019
0.16335778	0.06168934	0.0010939499	0.00022728802
0.16355471	0.057989284	0.0010260044	0.00022728802
0.16375165	0.046804391	0.0008375714	0.00022728802
0.16394858	0.053629823	0.00096635765	0.00022728802
0.16414551	0.045706823	0.00082219538	0.00022728802
0.16434245	0.039986782	0.00072342326	0.00022728802
0.16453938	0.055518616	0.0010084995	0.00022728802
0.16473632	0.048112262	0.00087588112	0.00022729376
0.16493326	0.043126684	0.00078801881	0.00022728802
0.1651302	0.050654143	0.00092381315	0.00022727586
0.16532713	0.053009577	0.00097653648	0.00022728802
0.16552407	0.04942451	0.00090596825	0.00022727586
0.165721	0.041355934	0.00075780915	0.00022728802
0.16591793	0.036731891	0.00067696115	0.00022727586
0.16611487	0.050737057	0.00093600812	0.00022727586
0.1663118	0.040972222	0.0007599768	0.00022728802
0.16650873	0.049501546	0.00091414037	0.00022728802
0.16670567	0.050292801	0.00092955388	0.00022728159
0.16690262	0.043765195	0.00081193651	0.00022727586
0.16709955	0.047718566	0.00088666385	0.00022727586
0.16729648	0.046699438	0.00087103044	0.00022727586
0.16749342	0.054317549	0.0010096843	0.00022727586
0.16769035	0.046869535	0.00087285141	0.00022727586
0.16788729	0.043079097	0.00080566801	0.00022727586
0.16808422	0.04242003	0.00078703417	0.00022727586
0.16828115	0.053489197	0.0010026767	0.00022727586
0.16847809	0.047418334	0.00088496495	0.00022726369
0.16867502	0.045845274	0.00086354237	0.00022728159
0.16887197	0.046470381	0.00087143609	0.00022727586
0.1690689	0.045903955	0.00085885194	0.00022726369
0.16926584	0.044420753	0.00083363609	0.00022727586
0.16946277	0.039529916	0.00074213609	0.00022727586
0.1696597	0.042430781	0.00080074777	0.00022726369
0.16985664	0.044531528	0.0008367027	0.00022726369
0.17005357	0.047874242	0.0009011213	0.00022727586
0.17025051	0.045993533	0.00086784217	0.00022726369
0.17044744	0.055575475	0.0010483874	0.00022726369
0.17064437	0.050450452	0.0009537185	0.00022726943
0.17084132	0.044996399	0.00084918097	0.00022727586
0.17103826	0.040437158	0.00076783419	0.00022726369
0.17123519	0.053926893	0.0010220569	0.00022726369
0.17143212	0.042131796	0.000795639	0.00022726369
0.17162906	0.042707201	0.00080858637	0.00022726369
0.17182599	0.047997113	0.00090785098	0.00022726369
0.17202292	0.04933726	0.00094216457	0.00022726369
0.17221986	0.044646099	0.00084660592	0.00022726369
0.17241679	0.043747723	0.00083138124	0.00022726369
0.17261373	0.044841416	0.00085250946	0.00022725726
0.17281067	0.048052419	0.00091271807	0.00022726369
0.17300761	0.04255319	0.00081110228	0.00022726369
0.17320454	0.04154519	0.00078902306	0.00022725153
0.17340147	0.04209749	0.00080487365	0.00022725153
0.17359841	0.033542205	0.00063999387	0.00022725153
0.17379534	0.042967316	0.00081966829	0.00022726369
0.17399228	0.047304731	0.00090163457	0.00022726369
0.17418921	0.04105572	0.00078198593	0.00022725153
0.17438614	0.052847043	0.0010155845	0.00022725153
0.17458308	0.041666668	0.00079632032	0.00022725726
0.17478003	0.042947058	0.00082239078	0.00022725153
0.17497696	0.043992605	0.00084172928	0.00022725153
0.17517389	0.040411461	0.00077041029	0.00022725153
0.17537083	0.041963283	0.00080825674	0.00022723936
0.17556776	0.044682421	0.00085477356	0.00022723936
0.17576469	0.046944857	0.00090190553	0.00022723936
0.17596163	0.042227205	0.00081225269	0.00022725153
0.17615856	0.041187383	0.00078930397	0.00022725153
0.1763555	0.042798661	0.00082164147	0.00022725153
0.17655243	0.045657016	0.00087575987	0.00022724509
0.17674938	0.051840723	0.0010006231	0.00022723936
0.17694631	0.039745033	0.00076556508	0.00022723936
0.17714325	0.048634492	0.00093639811	0.00022725153
0.17734018	0.047690574	0.00091988099	0.00022723936
0.17753711	0.055782817	0.0010716701	0.00022723936
0.17773405	0.043200601	0.00083318097	0.00022723936
0.17793098	0.04792453	0.00092660106	0.00022723936
0.17812791	0.048405252	0.00093356805	0.00022723936
0.17832485	0.053403534	0.0010314123	0.00022723936
0.17852178	0.046669174	0.00090112974	0.00022724509
0.17871873	0.047187619	0.00091255771	0.00022723936
0.17891566	0.055680964	0.0010755712	0.00022723936
0.1791126	0.046089914	0.00089178223	0.00022722721
0.17930953	0.062287655	0.0012059626	0.00022723936
0.17950647	0.054586809	0.0010585291	0.00022723936
0.1797034	0.062759921	0.0012160129	0.00022723936
0.17990033	0.047152016	0.00091134832	0.00022723936
0.18009727	0.041444868	0.0008036315	0.00022722721
0.1802942	0.043544114	0.00084301073	0.00022722721
0.18049113	0.044393416	0.00086435332	0.00022723294
0.18068808	0.043198179	0.00083599897	0.00022722721
0.18088502	0.062144753	0.0012053517	0.00022722721
0.18108195	0.05144817	0.00099999062	0.00022722721
0.18127888	0.047510453	0.0009218803	0.00022722721
0.18147582	0.039312977	0.00076415995	0.00022722721
0.18167275	0.041350532	0.00080136617	0.00022722721
0.18186969	0.044827588	0.00087309204	0.00022722721
0.18206662	0.049846627	0.00097162713	0.00022722721
0.18226355	0.049205147	0.0009531001	0.00022721505
0.18246049	0.039125431	0.0007619221	0.00022723294
0.18265744	0.047346316	0.00092045247	0.00022721505
0.18285437	0.044196773	0.00086177367	0.00022722721
0.1830513	0.053866871	0.0010522297	0.00022722721
0.18324824	0.048	0.00093266467	0.00022721505
0.18344517	0.049577247	0.00096791715	0.00022721505
0.1836421	0.042944785	0.00083664799	0.00022721505
0.18383904	0.040384617	0.00078772858	0.00022721505
0.18403597	0.055726364	0.0010879603	0.00022721505
0.18423291	0.047325894	0.00092384918	0.00022721505
0.18442984	0.056179777	0.0011013729	0.00022722078
0.18462679	0.046779141	0.000911368	0.00022721505
0.18482372	0.039722331	0.00077598001	0.00022721505
0.18502066	0.041890852	0.00081677892	0.00022721505
0.18521759	0.046403714	0.00090792222	0.00022721505
0.18541452	0.0464756	0.00091009698	0.00022721505
0.18561146	0.043193214	0.00084385119	0.00022721505
0.18580839	0.038164996	0.00074515364	0.00022721505
0.18600532	0.033681765	0.00065859116	0.00022720288
0.18620226	0.038416762	0.00075254019	0.00022721505
0.18639919	0.033694811	0.00065906206	0.00022722078
0.18659614	0.050387599	0.00098748924	0.00022720288
0.18679307	0.038611546	0.00075827149	0.00022720288
0.18699001	0.03749517	0.00073304522	0.00022720288
0.18718694	0.042395953	0.00083181018	0.00022720288
0.18738388	0.033410139	0.00065072649	0.00022720288
0.18758081	0.038054138	0.00074950053	0.00022721505
0.18777774	0.035367277	0.00069285452	0.00022720288
0.18797468	0.037383176	0.0007332642	0.00022720288
0.18817161	0.042088855	0.00082647038	0.00022719071
0.18836854	0.043343652	0.00084819598	0.00022720861
0.18856549	0.031471282	0.00061992166	0.00022719071
0.18876243	0.045932271	0.00090150558	0.00022720288
0.18895936	0.043664716	0.00085763895	0.00022720288
0.18915629	0.044548653	0.00087605702	0.00022719071
0.18935323	0.042171028	0.00082824531	0.00022719071
0.18955016	0.038838759	0.00076442258	0.00022720288
0.1897471	0.048581421	0.00095292245	0.00022719071
0.18994403	0.032472614	0.00063779129	0.00022720288
0.19014096	0.038991731	0.00076894369	0.00022719071
0.1903379	0.04359673	0.00085529161	0.00022719646
0.19053484	0.036234736	0.00071438897	0.00022719071
0.19073178	0.044781931	0.00087948452	0.00022719071
0.19092871	0.04130606	0.00081499491	0.00022719071
0.19112565	0.036363635	0.00071889255	0.00022719071
0.19132258	0.037022602	0.00072641909	0.00022719071
0.19151951	0.040961009	0.00080869242	0.00022719071
0.19171645	0.050274942	0.00099211943	0.00022719071
0.19191338	0.043324143	0.0008551252	0.00022717856
0.19211031	0.046666667	0.00091964018	0.00022719071
0.19230725	0.038869258	0.00076611392	0.00022719646
0.1925042	0.037713379	0.00074701442	0.00022719071
0.19270113	0.036191974	0.00071320991	0.00022719071
0.19289806	0.040567152	0.00080018281	0.00022719071
0.193095	0.039169606	0.00077085948	0.00022717856
0.19329193	0.042477172	0.00084179343	0.00022719071
0.19348887	0.041139241	0.00081359671	0.00022717856
0.1936858	0.051120725	0.0010091218	0.00022717856
0.19388273	0.047750592	0.00094406062	0.00022717856
0.19407967	0.051028483	0.0010099352	0.00022717856
0.1942766	0.040255081	0.00079919363	0.0002271843
0.19447355	0.048122067	0.00094738952	0.00022717856
0.19467048	0.049940545	0.00098998763	0.00022717856
0.19486742	0.041534811	0.00082177529	0.0002271664
0.19506435	0.052046087	0.0010329102	0.0002271664
0.19526128	0.051455922	0.0010232116	0.0002271664
0.19545822	0.046611831	0.0009180195	0.0002271664
0.19565515	0.053263918	0.0010613293	0.0002271664
0.19585209	0.048809525	0.00096802419	0.0002271664
0.19604902	0.045922406	0.00090912345	0.0002271664
0.19624595	0.05258964	0.0010453152	0.00022717213
0.1964429	0.048463356	0.00095723174	0.00022717856
0.19663984	0.038060896	0.00075736491	0.0002271664
0.19683677	0.04741209	0.00093794399	0.0002271664
0.1970337	0.043929711	0.00087348389	0.0002271664
0.19723064	0.039729837	0.0007876181	0.0002271664
0.19742757	0.043288324	0.00085843279	0.0002271664
0.1976245	0.039341629	0.00078363519	0.00022715423
0.19782144	0.041963577	0.00083056028	0.0002271664
0.19801837	0.041533545	0.0008252461	0.0002271664
0.19821531	0.049461506	0.0009831494	0.00022715998
0.19841225	0.046974521	0.00093257037	0.0002271664
0.19860919	0.045636509	0.00090834586	0.00022715423
0.19880612	0.041617122	0.00082452182	0.00022715423
0.19900306	0.046240449	0.00092266378	0.00022715423
0.19919999	0.035500597	0.00070471584	0.00022715423
0.19939692	0.03944223	0.00078295689	0.00022715423
0.19959386	0.042741936	0.00085347123	0.0002271664
0.19979079	0.046974521	0.00093270571	0.00022715423
0.19998772	0.04008016	0.00079797913	0.00022715423
0.20018466	0.036682617	0.00072802533	0.00022715998
0.20038161	0.034579813	0.00068883639	0.00022715423
0.20057854	0.044417769	0.00088404625	0.00022715423
0.20077547	0.041150618	0.00081829028	0.00022715423
0.20097241	0.044301249	0.0008846639	0.00022715423
0.20116934	0.049520768	0.00098504638	0.00022715423
0.20136628	0.04024145	0.00080255774	0.00022714208
0.20156321	0.048038431	0.00095632544	0.00022715423
0.20176014	0.045143086	0.00090185821	0.00022714208
0.20195708	0.034427542	0.00068438461	0.00022715423
0.20215401	0.036502205	0.00072665332	0.00022715998
0.20235096	0.035441	0.00070696243	0.00022714208
0.20254789	0.049219687	0.00097966462	0.00022714208
0.20274483	0.037728194	0.0007551632	0.00022714208
0.20294176	0.040016007	0.00079606369	0.00022714208
0.20313869	0.045270815	0.0009057619	0.00022714208
0.20333563	0.047272727	0.00094550219	0.00022714208
0.20353256	0.037435286	0.0007422918	0.00022712992
0.2037295	0.046709992	0.00093696953	0.00022712992
0.20392643	0.047657188	0.00094934937	0.00022714208
0.20412336	0.032467533	0.00064959365	0.00022714782
0.20432031	0.034663443	0.00069133699	0.00022714208
0.20451725	0.033279873	0.00066221174	0.00022714208
0.20471418	0.039398864	0.00078983739	0.00022712992
0.20491111	0.044382248	0.00088327553	0.00022714208
0.20510805	0.041040227	0.00082293665	0.00022712992
0.20530498	0.037560582	0.00075013575	0.00022712992
0.20550191	0.046166196	0.0009200903	0.00022712992
0.20569885	0.040408164	0.00081198168	0.00022712992
0.20589578	0.040898155	0.00081484817	0.00022712992
0.20609272	0.044806518	0.00089969352	0.00022713565
0.20628966	0.037484884	0.00074786885	0.00022712992
0.2064866	0.036511157	0.00073061814	0.00022711777
0.20668353	0.046341464	0.00092940446	0.00022712992
0.20688047	0.036663979	0.00073113211	0.00022712992
0.2070774	0.051863857	0.0010390165	0.00022711777
0.20727433	0.044703986	0.00089275255	0.00022711777
0.20747127	0.040325865	0.00080908427	0.00022711777
0.2076682	0.043866776	0.00087954698	0.00022712992
0.20786513	0.041228779	0.00082410924	0.00022712992
0.20806207	0.038680781	0.00077620603	0.0002271235
0.20825902	0.041178845	0.00082333223	0.00022711777
0.20845595	0.048084758	0.0009657612	0.00022711777
0.20865288	0.044040404	0.00088067929	0.00022711777
0.20884982	0.050632913	0.0010180856	0.00022711777
0.20904675	0.041903988	0.00084054674	0.00022711777
0.20924369	0.030425964	0.00060862902	0.0002271056
0.20944062	0.035641961	0.00071307801	0.00022711777
0.20963755	0.034049451	0.0006806936	0.00022711777
0.20983449	0.038240131	0.00077085831	0.00022711777
0.21003142	0.03125	0.00062471902	0.00022711133
0.21022837	0.036237784	0.00072659721	0.00022711777
0.2104253	0.041157294	0.00082605111	0.00022711777
0.21062224	0.054413542	0.0010880542	0.0002271056
0.21081917	0.045735475	0.00092337857	0.0002271056
0.2110161	0.042105265	0.00084250397	0.0002271056
0.21121304	0.042345278	0.00084987795	0.0002271056
0.21140997	0.056665309	0.0011395674	0.0002271056
0.2116069	0.047794119	0.00096126087	0.0002271056
0.21180384	0.049529266	0.00099785475	0.0002271056
0.21200077	0.046868686	0.00093751255	0.00022711133
0.21219772	0.040329218	0.00081315951	0.00022709343
0.21239465	0.042728018	0.00086142815	0.0002271056
0.21259159	0.037367992	0.00074861635	0.0002271056
0.21278852	0.039183673	0.00078731106	0.0002271056
0.21298546	0.038961038	0.00078035268	0.00022709343
0.21318239	0.038778879	0.00078279583	0.00022709343
0.21337932	0.042613637	0.00085400383	0.00022709343
0.21357626	0.041275032	0.0008297633	0.0002271056
0.21377319	0.038382173	0.00077479484	0.0002271056
0.21397012	0.045991044	0.00092310499	0.00022709918
0.21416707	0.041275032	0.00082926941	0.00022709343
0.21436401	0.046473704	0.0009334588	0.00022709343
0.21456094	0.043549713	0.00087778305	0.00022709343
0.21475787	0.035303775	0.00070990226	0.00022708128
0.21495481	0.046587657	0.0009369675	0.00022709343
0.21515174	0.04014748	0.00080749806	0.00022709343
0.21534868	0.040523946	0.00081539043	0.00022708128
0.21554561	0.047756277	0.00096420117	0.00022709343
0.21574254	0.035947714	0.00072151882	0.00022708128
0.21593948	0.031687241	0.00063765934	0.00022709918
0.21613643	0.036535304	0.00073547091	0.00022708128
0.21633336	0.031980321	0.00064266514	0.00022708128
0.21653029	0.035332784	0.00071126543	0.00022708128
0.21672723	0.038351692	0.00077007146	0.00022709343
0.21692416	0.041649483	0.00084024755	0.00022708128
0.21712109	0.042710472	0.00086065603	0.00022708128
0.21731803	0.036960986	0.00074341841	0.00022708128
0.21751496	0.040345822	0.00081383332	0.00022708128
0.2177119	0.03258656	0.00065285887	0.00022708128
0.21790883	0.044453677	0.00090147305	0.00022708702
0.21810578	0.036356211	0.00073006895	0.00022708128
0.21830271	0.030165289	0.00060852838	0.00022708128
0.21849965	0.034156378	0.00068824447	0.00022706912
0.21869658	0.042962357	0.00086450955	0.00022708128
0.21889351	0.03689884	0.00074685883	0.00022706912
0.21909045	0.039328143	0.00079106155	0.00022706912
0.21928738	0.03301692	0.00066625891	0.00022706912
0.21948431	0.047029704	0.0009504843	0.00022706912
0.21968125	0.044800658	0.00090350804	0.00022706912
0.21987818	0.035080478	0.00070801651	0.00022707487
0.22007513	0.040114611	0.00080718676	0.00022706912
0.22027206	0.045624223	0.00092428317	0.00022706912
0.220469	0.036124796	0.00072733348	0.00022706912
0.22066593	0.038907286	0.00078704825	0.00022705697
0.22086287	0.028406752	0.0005718164	0.00022705697
0.2210598	0.04408735	0.00089027273	0.00022705697
0.22125673	0.035995036	0.00072750368	0.00022705697
0.22145367	0.032644629	0.0006588769	0.00022705697
0.2216506	0.050413225	0.001020105	0.00022706912
0.22184753	0.03292181	0.00066317141	0.00022707487
0.22204448	0.031950209	0.00064638903	0.00022705697
0.22224142	0.033828381	0.00068241323	0.00022705697
0.22243835	0.032989692	0.00066480186	0.00022705697
0.22263528	0.039386403	0.00079700851	0.00022705697
0.22283222	0.044819079	0.00090437307	0.00022704482
0.22302915	0.042880934	0.00087003328	0.00022705697
0.22322609	0.043370508	0.00087669917	0.00022704482
0.22342302	0.043156598	0.00086990092	0.00022704482
0.22361995	0.036529679	0.00073950051	0.00022705697
0.22381689	0.042939719	0.00086800125	0.0002270627
0.22401384	0.054697286	0.0011131691	0.00022704482
0.22421077	0.039506175	0.00079687737	0.00022704482
0.2244077	0.036853001	0.0007452768	0.00022704482
0.22460464	0.042030796	0.00085266057	0.00022704482
0.22480157	0.04106776	0.00082790933	0.00022704482
0.2249985	0.045702305	0.00093100354	0.00022704482
0.22519544	0.045491803	0.00091653399	0.00022704482
0.22539237	0.038253639	0.00077529834	0.00022704482
0.22558931	0.03471351	0.00070525822	0.00022704482
0.22578624	0.044544339	0.0008959166	0.00022703838
0.22598319	0.042482298	0.0008623185	0.00022703265
0.22618012	0.04464655	0.00090287154	0.00022704482
0.22637706	0.039347008	0.00080033869	0.00022704482
0.22657399	0.04434314	0.00089747779	0.00022703265
0.22677092	0.038557213	0.00078046729	0.00022703265
0.22696786	0.039800994	0.00080510735	0.00022703265
0.22716479	0.047204968	0.00095602614	0.00022704482
0.22736172	0.045587622	0.0009272641	0.00022703265
0.22755866	0.044214875	0.00089405989	0.00022703265
0.22775559	0.038027581	0.00077249209	0.00022703265
0.22795253	0.048507463	0.00098221167	0.00022703838
0.22814947	0.036129568	0.00073168462	0.00022703265
0.22834641	0.03606965	0.00072976731	0.00022703265
0.22854334	0.036144577	0.0007323366	0.0002270205
0.22874027	0.03404792	0.0006931345	0.00022703265
0.22893721	0.038794883	0.00078310096	0.00022703265
0.22913414	0.03702163	0.00075030269	0.0002270205
0.22933108	0.04194352	0.00084958423	0.0002270205
0.22952801	0.035848271	0.00072659057	0.0002270205
0.22972494	0.034568928	0.00070106238	0.0002270205
0.22992188	0.040630184	0.00082254031	0.00022703838
0.23011883	0.03465765	0.0007078764	0.0002270205
0.23031576	0.035920728	0.00072534883	0.0002270205
0.23051269	0.045359965	0.00092040433	0.0002270205
0.23070963	0.046666667	0.00094782788	0.0002270205
0.23090656	0.04145937	0.00083969632	0.00022700834
0.23110349	0.039010067	0.00079407345	0.00022700834
0.23130043	0.037964121	0.00077065325	0.0002270205
0.23149736	0.042845257	0.00086911325	0.0002270205
0.2316943	0.032581452	0.00066109351	0.0002270205
0.23189123	0.045246992	0.00091704546	0.00022701408
0.23208818	0.043168481	0.00087880046	0.00022700834
0.23228511	0.038717736	0.00078497914	0.00022700834
0.23248205	0.041788548	0.0008488585	0.00022700834
0.23267898	0.040217847	0.00081877934	0.00022700834
0.23287591	0.044887781	0.00091027888	0.00022700834
0.23307285	0.048515264	0.00098728144	0.00022700834
0.23326978	0.046705589	0.00094893767	0.00022700834
0.23346671	0.028797997	0.00058379659	0.00022700834
0.23366365	0.025651809	0.00052124145	0.00022700834
0.23386058	0.042153589	0.00085648533	0.00022701408
0.23405753	0.033856317	0.00068305264	0.00022699618
0.23425446	0.03575936	0.0007285687	0.00022700834
0.2344514	0.035654362	0.0007255653	0.00022699618
0.23464833	0.038445465	0.00078113819	0.00022699618
0.23484527	0.04473244	0.00090988673	0.00022700834
0.2350422	0.036371239	0.00073913811	0.00022700834
0.23523913	0.037799243	0.00076991506	0.00022699618
0.23543607	0.034138218	0.00069202	0.00022699618
0.235633	0.043896321	0.00089236535	0.00022699618
0.23582993	0.035609551	0.00072368962	0.00022700192
0.23602688	0.037052631	0.00075543928	0.00022698403
0.23622382	0.032930389	0.00066743977	0.00022699618
0.23642075	0.040066779	0.00081291812	0.00022699618
0.23661768	0.036881812	0.0007500241	0.00022698403
0.23681462	0.03577441	0.00072892645	0.00022698403
0.23701155	0.043042205	0.00087436254	0.00022699618
0.23720849	0.03508772	0.00071217102	0.00022698403
0.23740542	0.04366079	0.00088979356	0.00022699618
0.23760235	0.041090146	0.00083628489	0.00022698403
0.23779929	0.03443931	0.00070087955	0.00022698977
0.23799624	0.041736227	0.00084752194	0.00022698403
0.23819317	0.03236654	0.00065929163	0.00022698403
0.2383901	0.039882451	0.00081220589	0.00022698403
0.23858704	0.04189359	0.00085257937	0.00022698403
0.23878397	0.045264039	0.00092206924	0.00022698403
0.2389809	0.03649329	0.00074236508	0.00022697187
0.23917784	0.036990333	0.0007537317	0.00022697187
0.23937477	0.03833193	0.00078197697	0.00022698403
0.23957171	0.038107201	0.00077491981	0.00022697187
0.23976864	0.049207672	0.0010002279	0.00022697762
0.23996559	0.049263157	0.0010057767	0.00022697187
0.24016252	0.038494077	0.00078684848	0.00022697187
0.24035946	0.032381766	0.00066379143	0.00022697187
0.24055639	0.035080303	0.00071667816	0.00022697187
0.24075332	0.035349235	0.00072461634	0.00022697187
0.24095026	0.03045903	0.00062567013	0.00022697187
0.24114719	0.034893617	0.00071533461	0.00022697187
0.24134412	0.037687365	0.00077513943	0.00022697187
0.24154106	0.03580673	0.000738731	0.00022697187
0.24173799	0.031506259	0.00064955931	0.00022696547
0.24193494	0.037760418	0.00078157871	0.00022697187
0.24213187	0.034423407	0.00070928823	0.00022695972
0.24232881	0.04110188	0.00085438398	0.00022697187
0.24252574	0.028421514	0.00058928371	0.00022695972
0.24272268	0.03187773	0.00066108268	0.00022695972
0.24291961	0.029062087	0.00060505664	0.00022695972
0.24311654	0.037859008	0.00078464212	0.00022695972
0.24331348	0.039537985	0.0008280967	0.00022695972
0.24351041	0.032186948	0.00067072629	0.00022695972
0.24370734	0.03125	0.00065020268	0.00022696547
0.24390429	0.027580071	0.00057635223	0.00022695972
0.24410123	0.03175313	0.00066610501	0.00022695972
0.24429816	0.030639432	0.00064054894	0.00022694757
0.24449509	0.030150754	0.00063907803	0.00022694757
0.24469203	0.034562211	0.00073648745	0.00022695972
0.24488896	0.028116213	0.00060300442	0.00022694757
0.2450859	0.030089328	0.0006468147	0.00022694757
0.24528283	0.029342167	0.00063280447	0.00022694757
0.24547976	0.028135432	0.00060842978	0.00022694757
0.2456767	0.037054859	0.00080694258	0.0002269533
0.24587364	0.031265032	0.00067974621	0.00022694757
0.24607058	0.033997085	0.00074311218	0.0002269354
0.24626751	0.034883723	0.00076162402	0.00022694757
0.24646445	0.03741999	0.00082403468	0.00022694757
0.24666138	0.038820639	0.0008541937	0.00022694757
0.24685831	0.034040455	0.00075028744	0.0002269354
0.24705525	0.032290116	0.00071362645	0.0002269354
0.24725218	0.032950573	0.00072980596	0.0002269354
0.24744911	0.043237809	0.00096316222	0.00022694757
0.24764605	0.040979512	0.00090935302	0.00022694115
0.247843	0.033736154	0.00075034553	0.0002269354
0.24803993	0.032208588	0.0007207907	0.0002269354
0.24823686	0.019989749	0.00044623399	0.0002269354
0.2484338	0.026985744	0.00060264941	0.00022692325
0.24863073	0.027263375	0.00061241991	0.0002269354
0.24882767	0.034979425	0.00078631262	0.00022692325
0.2490246	0.032074496	0.00072247034	0.00022692325
0.24922153	0.025600836	0.0005783349	0.00022692325
0.24941847	0.023871303	0.00053747132	0.00022692325
0.2496154	0.026884554	0.00061062147	0.000226929
0.24981235	0.02217529	0.00050269364	0.00022692965
0.25000927	0.028720627	0.00064939074	0.00022692325
0.2502062	0.033599999	0.00076840242	0.0002269354
0.25040314	0.040783897	0.00093147176	0.0002269111
0.25060007	0.031368308	0.00072271837	0.0002269226
0.25079703	0.035256412	0.00080737355	0.0002269111
0.25099397	0.040300913	0.00092770258	0.0002269111
0.2511909	0.035268582	0.00081462646	0.0002269111
0.25138783	0.023155628	0.00053002208	0.0002269111
0.25158477	0.025068119	0.00057784136	0.0002269111
0.2517817	0.034388646	0.00079582352	0.0002269111
0.25197864	0.035616439	0.0008257142	0.0002269111
0.25217557	0.031578947	0.00073602248	0.0002269111
0.2523725	0.034028541	0.00078970945	0.0002269111
0.25256944	0.031128405	0.00072658196	0.0002269111
0.25276637	0.032759577	0.00076468365	0.0002269111
0.2529633	0.032942489	0.00077064626	0.0002268868
0.25316024	0.025337838	0.00059318612	0.0002269111
0.25335717	0.039795339	0.00094153901	0.0002269111
0.25355411	0.022261277	0.00053106906	0.0002269111
0.25375104	0.026474128	0.00064148306	0.0002269111
0.25394797	0.031400967	0.00076325808	0.0002268868
0.25414491	0.03194103	0.00078392541	0.0002269111
0.25434184	0.030360531	0.00075546885	0.0002269111
0.25453877	0.034505207	0.00087108981	0.0002269226
0.25473574	0.032236401	0.00082620542	0.0002268868
0.25493267	0.034059945	0.00087852433	0.0002269111
0.25512961	0.043115437	0.0011266748	0.0002269111
0.25532654	0.051100072	0.0013507431	0.0002269111
0.25552347	0.039329935	0.0010504597	0.0002268868
0.25572041	0.040909089	0.0011147636	0.0002269111
0.25591734	0.038897894	0.0010946987	0.0002269111
0.25611427	0.036113501	0.0010449027	0.0002268868
0.25631121	0.035616439	0.001060768	0.0002268868
0.25650814	0.045240339	0.0013725553	0.0002268868
0.25670508	0.040658277	0.0012482986	0.0002268868
0.25690201	0.050739959	0.0016289373	0.0002268868
0.25709894	0.048260383	0.0015961127	0.0002268868
0.25729588	0.050767414	0.0017183056	0.0002268868
0.25749281	0.06115108	0.0020921174	0.0002268868
0.25768974	0.035220128	0.0012225123	0.0002268868
0.25788668	0.028460544	0.00099859817	0.0002268868
0.25808361	0.045393858	0.0016278701	0.0002268868
0.25828055	0.039671682	0.001439219	0.0002268868
0.25847748	0.03576538	0.0013152888	0.00022689829
0.25867444	0.048034936	0.0017991271	0.00022686248
0.25887138	0.051987767	0.0019971388	0.00022686248
0.25906831	0.044753086	0.0017202868	0.00022686248
0.25926524	0.050713155	0.001982617	0.0002268868
0.25946218	0.046822742	0.0018743137	0.00022686248
0.25965911	0.028862478	0.0011547301	0.0002268868
0.25985605	0.046793763	0.0019050991	0.0002268868
0.26005298	0.029513888	0.0011852528	0.00022686248
0.26024991	0.026223777	0.0010551582	0.00022686248
0.26044685	0.033928573	0.0013885592	0.0002268868
0.26064378	0.03208556	0.0013090209	0.00022686248
0.26084071	0.043165468	0.0017871829	0.00022686248
0.26103765	0.042357273	0.0017723618	0.00022686248
0.26123458	0.046296295	0.0019538333	0.00022686248
0.26143152	0.056603774	0.0024085182	0.0002268868
0.26162845	0.044362292	0.0018620705	0.00022686248
0.26182538	0.057361376	0.0024656015	0.00022686248
0.26202232	0.035225049	0.0015009099	0.00022686248
0.26221925	0.039682541	0.0017108867	0.00022686248
0.26241618	0.042065009	0.0017910008	0.00022684968
0.26261315	0.053571429	0.0023339421	0.00022683818
0.26281008	0.060975611	0.0026961933	0.00022686248
0.26300701	0.057494868	0.0025610249	0.00022686248
0.26320395	0.054325957	0.0023800305	0.00022683818
0.26340088	0.044397462	0.001980013	0.00022686248
0.26359782	0.043933053	0.0019537078	0.00022683818
0.26379475	0.047008548	0.0021252828	0.00022686248
0.26399168	0.02991453	0.0013339249	0.00022683818
0.26418862	0.036956523	0.0016673151	0.00022683818
0.26438555	0.022371365	0.0010049542	0.00022683818
0.26458248	0.041189931	0.0019170615	0.00022683818
0.26477942	0.035874441	0.00164661	0.00022683818
0.26497635	0.041958041	0.0019645251	0.00022686248
0.26517329	0.041958041	0.0019645251	0.00022683818
0.26537022	0.044009779	0.0021104903	0.00022683818
0.26556715	0.05528846	0.002654348	0.00022683818
0.26576409	0.03960396	0.0019101688	0.00022683818
0.26596102	0.030303031	0.0014597996	0.00022683818
0.26615795	0.028497409	0.0013847733	0.00022683818
0.26635489	0.017902814	0.00083929679	0.00022684968
0.26655185	0.021220159	0.001023667	0.00022681388
0.26674879	0.016438356	0.00078653323	0.00022683818
0.26694572	0.043243244	0.0021796699	0.00022683818
0.26714265	0.024657534	0.001218492	0.00022681388
0.26733959	0.036723163	0.0018778967	0.00022681388
0.26753652	0.025714286	0.0012977334	0.00022681388
0.26773345	0.012084592	0.00057611032	0.00022683818
0.26793039	0.023880597	0.0012222949	0.00022683818
0.26812732	0.044378698	0.0023243418	0.00022683818
0.26832426	0.037500001	0.0020102109	0.00022683818
0.26852119	0.050793651	0.0027638413	0.00022683818
0.26871812	0.022508038	0.0011835413	0.00022683818
0.26891506	0.070739552	0.0039253621	0.00022681388
0.26911199	0.023569023	0.001268301	0.00022683818
0.26930892	0.030201342	0.0016522347	0.00022683818
0.26950586	0.024221454	0.0013213885	0.00022683818
0.26970279	0.024054984	0.0013077739	0.00022681388
0.26989973	0.028985508	0.0016350031	0.00022681388
0.27009666	0.029962547	0.0017184699	0.00022681388
0.27029359	0.011450382	0.0005787008	0.00022684968
0.27049056	0.0073260074	0.00031409998	0.00022681388
0.27068749	0	0	0.00022681388
0.27088442	0	0	0.00022681388
0.27108136	0.0041841003	0	0.00022681388
0.27127829	0.0042016809	0	0.00022681388
0.27147523	0.021276595	0.0014682246	0.00022681388
0.27167216	0.045454547	0.0042203483	0.00022681388
0.27186909	0.10204082	0.013173413	0.00022681388
0.27206603	0.083333336	0.01228683	0.00022681388
0.27226296	0	0	0.00022681388
