#   DataFileName=PAL30_155C_WAXS_08172017.tif
#   DataFileType=.tif
#   
#   DataFilePath=E:DATA:PAL30_08262017:
#   
#   Processed on=Wed, Jan 16, 2019,2:43:19 AM
#   Units=Arbitrary
#   SampleThickness=1
#   SampleTransmission=1
#   CorrectionFactor=1
#   SampleMeasurementTime=1
#   EmptyMeasurementTime=1
#   BackgroundMeasTime=1
#   SampleI0=1
#   EmptyI0=1
#   Nika_SampleToDetectorDistacne=1552.1
#   Nika_Wavelength=1.54
#   Nika_XrayEnergy=8.0509
#   Nika_PixelSizeX=0.075
#   Nika_PixelSizeY=0.075
#   Nika_HorizontalTilt=0
#   Nika_VerticalTilt=0
#   Nika_BeamCenterX=1540.3
#   Nika_BeamCenterY=830.17
#   Nika_BeamSizeX=0
#   Nika_BeamCenterY=830.17
#   CalibrationFormula=1*((Sa2D))
#   CurrentMaskFileName=PAL30_30C_WAXS_mask.hdf
#   QvectorMaxNumPnts=1
#   QvectorNumberPoints=1383
#   CircularAverage=1
#   PolarizationCorrection=None
#   UncertainityCalculationMethod=OldNikaMethod

0.0060065244	6.5	4.5825758	0.00022756745
0.00620346	3.76	0.74672616	0.00022756765
0.0064003952	3.5789473	0.47237125	0.00022756765
0.0065973303	3.9749999	0.4427689	0.00022756765
0.0067942655	5.8061223	0.58151174	0.00022756765
0.0069912006	8.5233641	0.80012661	0.00022756745
0.0071881362	9.8688526	0.86852968	0.00022756727
0.0073850714	10.435115	0.88871688	0.00022756727
0.0075820065	9.5034485	0.77471393	0.00022756727
0.0077789417	8.5986395	0.6959939	0.00022756745
0.0079758773	8.1518984	0.63763857	0.00022756746
0.0081728119	7.1042943	0.54740065	0.00022756707
0.0083697475	5.6629214	0.41839442	0.00022756671
0.0085666822	5.0725389	0.35988653	0.00022756783
0.0087636178	4.6769233	0.33051249	0.00022756783
0.0089605534	4.2701421	0.2901513	0.00022756746
0.0091574881	3.6244543	0.23637077	0.00022756707
0.0093544237	3.112	0.19434743	0.00022756671
0.0095513584	3.0190115	0.18407948	0.00022756707
0.009748294	2.6433823	0.15856345	0.00022756707
0.0099452296	2.2960289	0.13658802	0.00022756595
0.010142164	2.1474819	0.12742114	0.00022756707
0.0103391	2.0707071	0.11917982	0.00022756671
0.010536035	1.9254237	0.11093817	0.00022756707
0.01073297	1.7434211	0.099125445	0.00022756783
0.010929906	1.4983922	0.084149227	0.00022756746
0.01112684	1.571885	0.088150136	0.00022756783
0.011323776	1.3554217	0.073732615	0.00022756746
0.011520711	1.25	0.068395928	0.00022756707
0.011717646	1.2159764	0.065601915	0.00022756707
0.011914582	1.3040936	0.069885798	0.00022756746
0.012111517	1.1217391	0.059887838	0.00022756783
0.012308452	1.0109891	0.052610628	0.00022756671
0.012505387	1.0367231	0.054694269	0.00022756783
0.012702323	0.95767194	0.048882924	0.00022756783
0.012899258	0.90884721	0.046689216	0.00022756671
0.013096193	0.81413615	0.041390199	0.00022756707
0.013293128	0.77493608	0.038754642	0.00022756671
0.013490063	0.70360827	0.03537726	0.00022756707
0.013686999	0.69607842	0.034262069	0.00022756707
0.013883934	0.63017035	0.030896293	0.00022756671
0.014080869	0.60526317	0.029405789	0.00022756707
0.014277805	0.63999999	0.030864034	0.00022756671
0.014474739	0.56973994	0.027489172	0.0002275663
0.014671675	0.50112867	0.023643959	0.00022756707
0.014868611	0.53636366	0.025418429	0.00022756671
0.015065545	0.43956044	0.020478444	0.0002275663
0.015262481	0.46781117	0.02150763	0.00022756671
0.015459416	0.48131868	0.022447899	0.00022756595
0.01565635	0.47974414	0.022013728	0.00022756707
0.015853286	0.42038217	0.019264741	0.00022756554
0.016050221	0.414433	0.018678423	0.00022756707
0.016247157	0.38056681	0.017036749	0.00022756707
0.016444093	0.37599999	0.016715946	0.00022756483
0.016641026	0.32730925	0.014587861	0.00022756707
0.016837962	0.37675351	0.016773466	0.00022756707
0.017034898	0.34241244	0.014998813	0.00022756554
0.017231833	0.32695985	0.014217599	0.00022756554
0.017428769	0.34535104	0.014960879	0.00022756483
0.017625703	0.3233645	0.013907759	0.00022756554
0.017822638	0.25698325	0.011022779	0.00022756554
0.018019574	0.24632353	0.010483264	0.00022756554
0.018216509	0.25547445	0.010862382	0.00022756554
0.018413445	0.23792486	0.010017065	0.00022756483
0.018610379	0.20494699	0.0085462397	0.00022756554
0.018807314	0.25130889	0.010442689	0.00022756554
0.01900425	0.28422877	0.011777517	0.00022756554
0.019201186	0.23951049	0.0099538052	0.00022756554
0.019398121	0.24455611	0.0099618006	0.00022756483
0.019595055	0.2220339	0.0090896478	0.00022756554
0.019791991	0.2016529	0.008135383	0.00022756554
0.019988926	0.19834711	0.0080115646	0.00022756554
0.020185862	0.1879085	0.0075503425	0.00022756554
0.020382797	0.1767516	0.0070211529	0.00022756483
0.020579731	0.1828479	0.0073099816	0.00022756403
0.020776667	0.18181819	0.0071571702	0.00022756403
0.020973602	0.16901408	0.0066400785	0.00022756554
0.021170538	0.1984375	0.0078063845	0.00022756403
0.021367474	0.19004525	0.007346198	0.0002275633
0.021564407	0.17801857	0.0069624102	0.00022756403
0.021761343	0.18086697	0.0069521568	0.00022756403
0.021958278	0.14932127	0.0057687918	0.00022756403
0.022155214	0.15124816	0.0057537197	0.00022756403
0.02235215	0.16133721	0.0061225886	0.0002275633
0.022549083	0.15124816	0.0057658311	0.00022756403
0.022746019	0.13049646	0.0048856209	0.00022756403
0.022942955	0.14777619	0.005567282	0.00022756403
0.02313989	0.14002828	0.0052330722	0.00022756403
0.023336826	0.14225942	0.0052852207	0.0002275633
0.02353376	0.14486639	0.0054056458	0.00022756403
0.023730695	0.13297151	0.0048660534	0.00022756403
0.023927631	0.12689655	0.0046847668	0.0002275625
0.024124566	0.16353887	0.0059564761	0.00022756403
0.024321502	0.1152815	0.0041903346	0.00022756179
0.024518436	0.11409396	0.0041494644	0.0002275625
0.024715371	0.098814227	0.0035599445	0.0002275625
0.024912307	0.11889036	0.0042966888	0.0002275625
0.025109243	0.12531969	0.0044557182	0.0002275625
0.025306178	0.11642949	0.0041613178	0.00022756179
0.025503112	0.12771392	0.0045395554	0.0002275625
0.025700048	0.095298603	0.0033715807	0.0002275625
0.025896983	0.097964376	0.0034719387	0.0002275625
0.026093919	0.11453202	0.0039944681	0.00022756097
0.026290854	0.12779157	0.0044765933	0.00022756179
0.026487788	0.11707317	0.0040668268	0.0002275625
0.026684724	0.1002445	0.0034804088	0.00022756097
0.026881659	0.10840438	0.0037604705	0.0002275625
0.027078595	0.11813843	0.004059853	0.00022756097
0.027275531	0.10108303	0.0034846934	0.00022756179
0.027472464	0.10593714	0.0035953899	0.00022756097
0.0276694	0.10283688	0.0035130724	0.00022756097
0.027866336	0.095127612	0.0032196853	0.00022756097
0.028063271	0.098837212	0.0033505079	0.00022756097
0.028260207	0.085081585	0.0028841591	0.00022756026
0.028457141	0.098765433	0.0032900404	0.00022756097
0.028654076	0.094211124	0.003154811	0.00022756097
0.028851012	0.088366888	0.0029364019	0.00022756097
0.029047947	0.077267639	0.0025677488	0.00022756097
0.029244883	0.10123734	0.0033745782	0.00022756026
0.029441817	0.094771244	0.0031099198	0.00022756097
0.029638752	0.11318681	0.0037326994	0.00022755946
0.029835688	0.10463862	0.0034186626	0.00022756097
0.030032624	0.074193545	0.0024123841	0.00022755946
0.030229559	0.094155841	0.0030788425	0.00022755875
0.030426493	0.086170211	0.0027920576	0.00022755946
0.030623429	0.10543131	0.0034232584	0.00022755946
0.030820364	0.084623322	0.0027016327	0.00022755946
0.0310173	0.10410095	0.0033576074	0.00022755946
0.031214235	0.094398342	0.0030237061	0.00022755946
0.031411171	0.081108831	0.0025820425	0.00022755875
0.031608105	0.082730092	0.0026442714	0.00022755571
0.031805038	0.085945398	0.0027173941	0.00022756017
0.032001976	0.089989886	0.0028442848	0.00022755875
0.03219891	0.083417088	0.0026286826	0.00022756017
0.032395847	0.083916083	0.0026366813	0.00022755875
0.032592781	0.086395234	0.0027067496	0.00022755875
0.032789715	0.092954993	0.0028927838	0.00022756017
0.032986652	0.085714288	0.0026744434	0.00022755571
0.033183586	0.074975654	0.0023242631	0.00022755713
0.033380523	0.074181117	0.0022877941	0.00022755875
0.033577457	0.091522157	0.0028264527	0.00022755571
0.033774391	0.087702572	0.0026924461	0.00022755713
0.033971328	0.091603056	0.002814342	0.00022755571
0.034168262	0.077578053	0.0023716262	0.00022756017
0.0343652	0.082940623	0.0025316614	0.00022755571
0.034562133	0.078922935	0.0023904729	0.00022755571
0.034759067	0.084415585	0.0025568376	0.00022756017
0.034956004	0.068518519	0.0020713925	0.00022755571
0.035152938	0.08127854	0.0024416342	0.00022755713
0.035349876	0.074817516	0.0022464721	0.00022755571
0.035546809	0.076225042	0.0022822022	0.00022755571
0.035743743	0.082427539	0.0024667198	0.00022755713
0.035940681	0.068161435	0.002028354	0.00022755571
0.036137614	0.087033749	0.002581029	0.00022755713
0.036334552	0.074600354	0.0022099228	0.00022755266
0.036531486	0.076719575	0.0022652005	0.00022755266
0.036728419	0.074074075	0.0021868856	0.00022755713
0.036925357	0.080869563	0.0023715026	0.00022755571
0.037122291	0.081668116	0.002394595	0.00022755713
0.037319228	0.066724434	0.001951566	0.00022755571
0.037516162	0.085665822	0.0024828196	0.00022755266
0.037713096	0.066838048	0.0019444653	0.00022755713
0.037910033	0.075809196	0.0022001527	0.00022755266
0.038106967	0.067854114	0.0019639689	0.00022755409
0.038303904	0.06919831	0.0019981333	0.00022755266
0.038500838	0.071547419	0.0020519362	0.00022755266
0.038697772	0.084297523	0.0024110663	0.00022755409
0.038894709	0.071192056	0.0020372209	0.00022755266
0.039091643	0.0719603	0.0020579412	0.00022755409
0.03928858	0.074590161	0.0021243556	0.00022755266
0.039485514	0.079610072	0.0022576218	0.00022755266
0.039682448	0.068237208	0.0019337743	0.00022755409
0.039879385	0.064257026	0.0018089857	0.00022755266
0.040076319	0.071999997	0.0020251737	0.00022755409
0.040273257	0.088282503	0.0024897854	0.00022754962
0.04047019	0.066030234	0.0018510765	0.00022754962
0.040667124	0.058776807	0.0016459295	0.00022755409
0.040864062	0.064112589	0.0017810918	0.00022755266
0.041060995	0.049766719	0.0013774242	0.00022755409
0.041257933	0.05226209	0.0014489337	0.00022754962
0.041454867	0.07626459	0.0021170049	0.00022755266
0.0416518	0.057587549	0.001595625	0.00022755409
0.041848738	0.064885497	0.0017820728	0.00022754962
0.042045671	0.074524716	0.0020443108	0.00022754801
0.042242609	0.084410645	0.0023167825	0.00022754657
0.042439543	0.066059224	0.0018097598	0.00022754353
0.042636476	0.064613074	0.001760664	0.00022754801
0.042833414	0.050451808	0.0013736655	0.00022754657
0.043030348	0.070201643	0.0019078676	0.00022754801
0.043227285	0.062038403	0.001675567	0.00022754353
0.043424219	0.058216654	0.0015701444	0.00022754353
0.043621153	0.064705886	0.0017450007	0.00022754801
0.04381809	0.071114369	0.0019156636	0.00022754353
0.044015024	0.070958301	0.0019097696	0.00022754495
0.044211961	0.068840578	0.0018433956	0.00022754353
0.044408895	0.064748198	0.0017269813	0.00022754353
0.044605829	0.063218392	0.0016842801	0.00022754495
0.044802766	0.073888093	0.0019689389	0.00022754353
0.0449997	0.08422555	0.0022400024	0.00022754495
0.045196638	0.07067138	0.0018697889	0.00022754353
0.045393571	0.082978725	0.0022003271	0.00022754353
0.045590505	0.069376312	0.0018265574	0.00022754495
0.045787442	0.083450213	0.0022000875	0.00022754048
0.045984376	0.063194446	0.0016557081	0.00022754191
0.046181314	0.066620402	0.0017460511	0.00022754353
0.046378247	0.070441991	0.0018412825	0.00022754048
0.046575181	0.079419889	0.0020771457	0.00022754191
0.046772119	0.067169294	0.0017493714	0.00022754353
0.046969052	0.068073519	0.0017667268	0.00022754495
0.04716599	0.060668029	0.0015745695	0.00022754048
0.047362924	0.067385443	0.0017398261	0.00022754048
0.047559857	0.05764075	0.00148284	0.00022754495
0.047756795	0.055742107	0.0014348375	0.00022754048
0.047953729	0.056338027	0.0014478851	0.00022754495
0.048150666	0.059057731	0.0015124767	0.00022754048
0.0483476	0.067020573	0.0017155474	0.00022754048
0.048544534	0.064833008	0.0016490417	0.00022754191
0.048741471	0.056690838	0.0014443446	0.00022753744
0.048938405	0.059934855	0.0015206529	0.00022754191
0.049135342	0.064875491	0.0016501513	0.00022754048
0.049332276	0.049902786	0.0012608097	0.00022753744
0.04952921	0.060155239	0.0015207409	0.00022753887
0.049726147	0.067053512	0.0016909926	0.00022753744
0.049923081	0.061431285	0.0015359785	0.00022754191
0.050120018	0.06905371	0.0017337303	0.00022753744
0.050316952	0.058861166	0.0014785486	0.00022753744
0.050513886	0.064761907	0.0016215028	0.00022753887
0.050710823	0.042485733	0.0010612223	0.00022753744
0.050907757	0.057728119	0.0014287821	0.00022753887
0.051104695	0.059337914	0.001472311	0.00022753744
0.051301628	0.054931335	0.0013621761	0.00022753744
0.051498562	0.060549315	0.0015025267	0.00022753887
0.0516955	0.047619049	0.0011754424	0.00022753744
0.051892433	0.052019585	0.001277535	0.00022753887
0.052089371	0.06234568	0.0015394879	0.0002275344
0.052286305	0.047966	0.0011728606	0.00022753744
0.052483238	0.054103345	0.0013249782	0.00022753583
0.052680176	0.074772038	0.0018344002	0.0002275344
0.052877109	0.056534953	0.0013838945	0.00022753887
0.053074047	0.045810729	0.001115473	0.0002275344
0.053270981	0.06268657	0.0015224451	0.00022753744
0.053467914	0.057875894	0.001404557	0.00022753887
0.053664852	0.061050061	0.0014993683	0.0002275344
0.053861786	0.055108361	0.0013606797	0.00022753583
0.054058723	0.057285182	0.0014195543	0.0002275344
0.054255657	0.045763761	0.0011277638	0.0002275344
0.054452591	0.048155095	0.0011941212	0.00022753583
0.054649528	0.0555209	0.0013770494	0.0002275344
0.054846462	0.058307212	0.0014499993	0.00022753583
0.055043399	0.057971016	0.0014447824	0.00022753136
0.055240333	0.046746682	0.001163866	0.0002275344
0.055437267	0.050409578	0.0012558615	0.00022753583
0.055634204	0.048811015	0.0012109365	0.00022753136
0.055831138	0.045598481	0.0011365321	0.00022753279
0.056028076	0.047828823	0.001190214	0.00022753136
0.056225009	0.053729456	0.0013404863	0.00022753136
0.056421943	0.038927887	0.00097267213	0.00022753279
0.05661888	0.059082337	0.0014707558	0.00022753136
0.056815814	0.060967945	0.0015184666	0.00022753279
0.057012752	0.046202533	0.0011518679	0.00022753136
0.057209685	0.051136363	0.0012741392	0.00022752832
0.057406619	0.0625	0.0015595271	0.00022753279
0.057603557	0.050536957	0.0012600252	0.00022753136
0.05780049	0.046202533	0.0011514274	0.00022753279
0.057997428	0.059045225	0.001470045	0.00022752832
0.058194362	0.051136363	0.0012747318	0.00022752832
0.058391295	0.042956412	0.0010696762	0.00022752974
0.058588233	0.05764411	0.0014329198	0.00022752832
0.058785167	0.044936709	0.0011203835	0.00022752974
0.058982104	0.050911378	0.0012655415	0.00022752832
0.059179038	0.054648243	0.001359252	0.00022752832
0.059375972	0.063561991	0.0015835081	0.00022752974
0.059572909	0.053884711	0.0013373173	0.00022752528
0.059769843	0.056710776	0.0014137797	0.00022752974
0.05996678	0.043990087	0.0010855994	0.00022752528
0.060163714	0.0415879	0.0010346426	0.00022752528
0.060360648	0.057356607	0.0014215288	0.00022752974
0.060557585	0.067000628	0.0016655746	0.00022752528
0.060754519	0.054138146	0.0013397215	0.0002275267
0.060951456	0.054307114	0.0013454572	0.00022752528
0.06114839	0.07405103	0.0018362298	0.00022752528
0.061345324	0.06849315	0.0016986028	0.0002275267
0.061542261	0.057142857	0.0014135881	0.00022752528
0.061739195	0.063432835	0.0015715276	0.0002275267
0.061936133	0.06385617	0.0015787899	0.00022752528
0.062133066	0.055074256	0.0013595911	0.00022752528
0.06233	0.050461538	0.0012417097	0.00022752528
0.062526934	0.051297899	0.0012659291	0.0002275251
0.062723875	0.052109182	0.0012875583	0.00022751919
0.062920809	0.057336621	0.0014142694	0.00022752528
0.063117743	0.056416616	0.0013946813	0.00022751919
0.063314676	0.054467563	0.0013382116	0.00022751919
0.06351161	0.050091632	0.0012288211	0.00022752814
0.063708551	0.052728388	0.0012953841	0.00022751919
0.063905485	0.058096416	0.0014342528	0.00022751919
0.064102419	0.045731708	0.0011208388	0.00022751919
0.064299352	0.059399877	0.0014594648	0.00022752528
0.064496286	0.048810251	0.0011957997	0.00022752205
0.064693227	0.041919805	0.0010240746	0.00022751919
0.064890161	0.052727271	0.0012887203	0.00022751919
0.065087095	0.065363467	0.0016055999	0.00022752528
0.065284029	0.055589493	0.0013652868	0.00022752528
0.065480962	0.05024213	0.0012268609	0.00022752205
0.065677904	0.051143199	0.0012446804	0.00022752528
0.065874837	0.039927404	0.0009730595	0.00022751919
0.066071771	0.05358218	0.0013055413	0.00022751919
0.066268705	0.041717049	0.0010164347	0.00022751919
0.066465639	0.05719446	0.0013949669	0.00022752205
0.06666258	0.049101796	0.0011916702	0.00022751919
0.066859514	0.052695338	0.0012866857	0.00022751919
0.067056447	0.044589773	0.0010789173	0.00022751919
0.067253381	0.041841004	0.0010136036	0.00022751919
0.067450315	0.046622831	0.0011311673	0.00022751596
0.067647256	0.050898202	0.0012367882	0.00022751919
0.06784419	0.046163071	0.0011211673	0.00022751919
0.068041123	0.044378698	0.0010714575	0.00022751311
0.068238057	0.046235923	0.0011176723	0.00022751311
0.068434991	0.045157459	0.0010911162	0.00022752205
0.068631932	0.054373521	0.0013131642	0.00022751311
0.068828866	0.053827751	0.0013074953	0.00022751311
0.0690258	0.047925189	0.0011492602	0.00022751311
0.069222733	0.054899644	0.0013248957	0.00022751311
0.069419667	0.045508273	0.0010977692	0.00022751596
0.069616608	0.045720983	0.0010981321	0.00022751311
0.069813542	0.039929535	0.00095839892	0.00022751311
0.070010476	0.039458185	0.00094916607	0.00022751311
0.07020741	0.047844063	0.0011534268	0.00022751311
0.070404343	0.038128249	0.0009078111	0.00022752205
0.070601285	0.037361354	0.00089298928	0.00022751311
0.070798218	0.03486345	0.00083194778	0.00022751311
0.070995152	0.047507331	0.0011409151	0.00022751311
0.071192086	0.047869235	0.0011484616	0.00022751311
0.071389019	0.058112774	0.0013856428	0.00022751596
0.071585961	0.050464038	0.0012069506	0.00022750701
0.071782894	0.055491328	0.0013261024	0.00022751311
0.071979828	0.048171792	0.0011517999	0.00022751311
0.072176762	0.050144091	0.0011958089	0.00022751311
0.072373696	0.04469914	0.0010620494	0.00022751596
0.072570637	0.052753624	0.0012615189	0.00022751311
0.072767571	0.052302446	0.0012383967	0.00022750701
0.072964504	0.039930556	0.00095183466	0.00022750701
0.073161438	0.042589437	0.0010067588	0.00022751311
0.073358372	0.058924485	0.0014006414	0.00022750988
0.073555313	0.052995391	0.001263548	0.00022750701
0.073752247	0.055398531	0.0013084342	0.00022751311
0.073949181	0.049086757	0.0011647861	0.00022750701
0.074146114	0.045840409	0.0010823915	0.00022751311
0.074343048	0.0450656	0.0010686069	0.00022750988
0.074539989	0.043725155	0.0010340509	0.00022750701
0.074736923	0.046394635	0.0010888018	0.00022750701
0.074933857	0.044393852	0.0010508345	0.00022750701
0.07513079	0.04954955	0.0011675542	0.00022750701
0.075327724	0.045608107	0.0010745053	0.0002275038
0.075524665	0.054647889	0.0012893756	0.00022750701
0.075721599	0.046213809	0.0010827604	0.00022750093
0.075918533	0.045045044	0.0010607869	0.00022750701
0.076115467	0.047565755	0.0011168418	0.00022750701
0.0763124	0.050251257	0.001179645	0.00022750988
0.076509342	0.046718575	0.0010934619	0.00022750701
0.076706275	0.044975013	0.0010512287	0.00022750701
0.076903209	0.059417039	0.0013989697	0.00022750701
0.077100143	0.043526173	0.001012661	0.00022750093
0.077297077	0.045454547	0.0010626527	0.0002275038
0.077494018	0.051167965	0.0011991776	0.00022750093
0.077690952	0.04617922	0.0010750416	0.00022750093
0.077887885	0.047353759	0.0011103177	0.00022750093
0.078084819	0.043028321	0.00099646999	0.00022750093
0.078281753	0.047881123	0.0011163634	0.0002275038
0.078478694	0.051733628	0.0012065477	0.00022750093
0.078675628	0.03167668	0.00073384802	0.00022750093
0.078872561	0.0446527	0.001040591	0.00022750093
0.079069495	0.051771116	0.001201301	0.00022750093
0.079266429	0.046372067	0.0010764168	0.0002275038
0.07946337	0.054525629	0.0012660237	0.00022750093
0.079660304	0.05246079	0.0012123456	0.00022750093
0.079857238	0.040961225	0.00095008529	0.00022750093
0.080054171	0.043807462	0.0010111798	0.00022750093
0.080251105	0.049046323	0.0011373216	0.0002275038
0.080448046	0.048517521	0.0011191147	0.00022749485
0.08064498	0.046573877	0.0010705204	0.00022750093
0.080841914	0.035230353	0.000813302	0.00022750093
0.081038848	0.042918455	0.00098701706	0.00022749485
0.081235781	0.048160173	0.0011134429	0.00022749772
0.081432723	0.039487727	0.00090471969	0.00022749485
0.081629656	0.0416	0.00095303694	0.00022749485
0.08182659	0.039100159	0.0008982491	0.00022749485
0.082023524	0.04523683	0.0010369795	0.00022749485
0.082220457	0.048102617	0.0011053405	0.00022749772
0.082417399	0.045333333	0.0010397164	0.00022749485
0.082614332	0.03991485	0.00091423676	0.00022749485
0.082811266	0.040892195	0.00093598582	0.00022749485
0.0830082	0.041578948	0.00094746391	0.00022749485
0.083205134	0.05549683	0.0012695374	0.00022749163
0.083402075	0.045958795	0.0010499421	0.00022749485
0.083599009	0.054816391	0.0012578046	0.00022749485
0.083795942	0.040398739	0.0009183056	0.00022748877
0.083992876	0.039287586	0.00089147734	0.00022749485
0.08418981	0.050261781	0.0011428491	0.00022749772
0.084386751	0.041339613	0.00093929359	0.00022748877
0.084583685	0.044955567	0.0010212758	0.00022749485
0.084780619	0.049973972	0.0011329206	0.00022749485
0.084977552	0.045929018	0.0010422048	0.00022748877
0.085174486	0.042399172	0.00095716713	0.00022749163
0.085371427	0.050962038	0.001156006	0.00022748877
0.085568361	0.0370561	0.00083420507	0.00022748877
0.085765295	0.039094649	0.00087997585	0.00022748877
0.085962228	0.035974976	0.00081306725	0.00022748877
0.086159162	0.037075181	0.00083550386	0.00022748555
0.086356103	0.051478084	0.0011557891	0.00022748877
0.086553037	0.040041067	0.00090116373	0.00022748877
0.086749971	0.036566786	0.00081741321	0.00022748877
0.086946905	0.048868313	0.0011020494	0.00022748268
0.087143838	0.039026864	0.00087266765	0.00022749163
0.08734078	0.036715962	0.00082209846	0.00022748877
0.087537713	0.044579536	0.00099660316	0.00022748268
0.087734647	0.046029337	0.0010288933	0.00022748877
0.087931581	0.046747968	0.0010466751	0.00022748877
0.088128515	0.050728276	0.001130513	0.00022748555
0.088325456	0.070996977	0.0015866598	0.00022748268
0.08852239	0.043544304	0.00097328989	0.00022748268
0.088719323	0.045431852	0.0010090451	0.00022748268
0.088916257	0.042585172	0.00094740256	0.00022748268
0.089113191	0.041958041	0.00093170704	0.00022748555
0.089310132	0.045954045	0.001020243	0.00022748268
0.089507066	0.052290838	0.0011605821	0.00022748268
0.089703999	0.053075396	0.0011760079	0.00022748268
0.089900933	0.050000001	0.0011119209	0.00022748268
0.090097867	0.038858831	0.00085545477	0.00022747947
0.090294808	0.043868396	0.00097272021	0.00022748268
0.090491742	0.042427231	0.00093568722	0.00022748268
0.090688676	0.045477014	0.0010048767	0.00022748268
0.090885609	0.051332675	0.0011342744	0.0002274766
0.091082543	0.050713934	0.0011196836	0.00022748268
0.091279477	0.044761438	0.00098630623	0.00022748555
0.091476418	0.04918839	0.0010846241	0.0002274766
0.091673352	0.047363281	0.0010398692	0.00022748268
0.091870286	0.04467354	0.00098388339	0.0002274766
0.092067219	0.048971597	0.0010761507	0.0002274766
0.092264153	0.046738073	0.0010248919	0.00022747947
0.092461094	0.054634146	0.00120011	0.0002274766
0.092658028	0.038630806	0.00084807287	0.0002274766
0.092854962	0.043541364	0.00095188629	0.0002274766
0.093051895	0.04108265	0.0008973215	0.0002274766
0.093248829	0.049538612	0.0010858915	0.00022747337
0.09344577	0.049782503	0.0010879362	0.0002274766
0.093642704	0.048104957	0.0010545193	0.00022747052
0.093839638	0.049662489	0.0010843141	0.0002274766
0.094036572	0.047138046	0.0010284532	0.0002274766
0.094233505	0.038535647	0.00084013114	0.00022747947
0.094430447	0.046934865	0.0010213795	0.00022747052
0.09462738	0.057487924	0.0012573652	0.00022747052
0.094824314	0.038259204	0.00083071069	0.00022747052
0.095021248	0.043082815	0.0009361835	0.00022747052
0.095218182	0.045692526	0.00099101546	0.00022747337
0.095415123	0.046822742	0.0010178284	0.00022747052
0.095612057	0.042877562	0.00092961651	0.00022747052
0.09580899	0.049453162	0.0010722415	0.00022747052
0.096005924	0.042105265	0.00091502123	0.00022747052
0.096202858	0.049312469	0.001067868	0.00022747337
0.096399799	0.047754139	0.0010321388	0.00022747052
0.096596733	0.040451553	0.00087192311	0.00022746444
0.096793666	0.0463138	0.0010007485	0.00022747052
0.0969906	0.041115314	0.0008880375	0.00022746444
0.097187534	0.044769086	0.00096620509	0.00022747337
0.097384475	0.047236655	0.0010211171	0.00022746444
0.097581409	0.046052631	0.00099292165	0.00022747052
0.097778343	0.051186599	0.0010987588	0.00022746444
0.097975276	0.05364706	0.0011580253	0.00022746444
0.09817221	0.055970151	0.0012033301	0.00022746729
0.098369151	0.052333806	0.0011306518	0.00022746444
0.098566085	0.048170451	0.0010311749	0.00022746444
0.098763019	0.039812647	0.00085602957	0.00022746444
0.098959953	0.046716005	0.00099915615	0.00022746444
0.099156886	0.037875287	0.00080799387	0.00022746121
0.099353828	0.042016808	0.00090243766	0.00022746444
0.099550761	0.041821562	0.00089592964	0.00022745834
0.099747695	0.040110651	0.00085568312	0.00022745834
0.099944629	0.037002776	0.00078949484	0.00022745834
0.10014156	0.040919539	0.00087177265	0.00022746121
0.1003385	0.04383941	0.00093647087	0.00022745834
0.10053544	0.036238533	0.00077076693	0.00022746444
0.10073237	0.038568772	0.00082609139	0.00022745834
0.1009293	0.038038496	0.00080899178	0.00022746444
0.10112624	0.03590909	0.00076052587	0.00022746121
0.10132318	0.044117648	0.00094042247	0.00022746444
0.10152011	0.04634257	0.00098250352	0.00022745834
0.10171705	0.041152265	0.00087472418	0.00022745834
0.10191398	0.035095714	0.00074404496	0.00022745834
0.10211091	0.042485151	0.00090273691	0.00022746121
0.10230786	0.047294226	0.0010030695	0.00022745834
0.10250479	0.048372515	0.0010231959	0.00022745226
0.10270172	0.045045044	0.00095077697	0.00022745226
0.10289866	0.056947608	0.0012098972	0.00022745226
0.10309559	0.036101084	0.00076153385	0.00022745512
0.10329253	0.051223934	0.0010849913	0.00022745226
0.10348947	0.043946188	0.00092518254	0.00022745834
0.1036864	0.043243244	0.00091249857	0.00022745226
0.10388333	0.055181697	0.0011629801	0.00022745226
0.10408027	0.037336931	0.00078682665	0.00022746121
0.10427721	0.046636771	0.00098231505	0.00022745226
0.10447414	0.04576043	0.00096376502	0.00022745226
0.10467108	0.039215688	0.00082201872	0.00022745226
0.10486801	0.045596782	0.00095869211	0.00022745226
0.10506494	0.045232818	0.00094714249	0.00022745512
0.10526188	0.046325166	0.00097221223	0.00022745226
0.10545882	0.055058192	0.0011593095	0.00022744617
0.10565575	0.056269385	0.0011789781	0.00022745226
0.10585269	0.05062167	0.0010608686	0.00022745226
0.10604962	0.053003535	0.0011085357	0.00022745512
0.10624656	0.050000001	0.0010465805	0.00022744617
0.10644349	0.050750222	0.0010613085	0.00022744617
0.10664043	0.054601498	0.0011407144	0.00022745226
0.10683736	0.049977887	0.0010456378	0.00022744617
0.1070343	0.040933099	0.00085381651	0.00022744904
0.10723124	0.049846962	0.0010371701	0.00022744617
0.10742817	0.045374449	0.00094765774	0.00022744617
0.1076251	0.051193058	0.0010613778	0.00022744617
0.10782204	0.047032967	0.00098089676	0.00022744617
0.10801897	0.043725405	0.00090911362	0.00022744904
0.10821591	0.04463895	0.00092872896	0.00022744617
0.10841285	0.044463817	0.00092353736	0.00022744617
0.10860978	0.051925573	0.0010749615	0.00022744009
0.10880671	0.048287973	0.0010063273	0.00022744009
0.10900365	0.047475185	0.00098126894	0.00022744904
0.10920059	0.048854303	0.0010107303	0.00022744009
0.10939752	0.048590023	0.0010066273	0.00022744009
0.10959446	0.053563714	0.0011081977	0.00022744009
0.10979139	0.051259775	0.0010632222	0.00022744009
0.10998832	0.060437206	0.0012458798	0.00022744296
0.11018527	0.062526949	0.0012934749	0.00022744009
0.1103822	0.054286946	0.0011220196	0.00022744009
0.11057913	0.067381971	0.0013904752	0.00022743401
0.11077607	0.057228915	0.0011823718	0.00022744009
0.110973	0.053662691	0.0011028594	0.00022743687
0.11116994	0.062847368	0.0012949139	0.00022743401
0.11136688	0.05952891	0.0012267246	0.00022743401
0.11156381	0.054870266	0.0011268085	0.00022743401
0.11176074	0.061965812	0.0012757935	0.00022743401
0.11195768	0.053435113	0.0010957109	0.00022744296
0.11215462	0.064129971	0.0013208566	0.00022743401
0.11235155	0.066213921	0.0013592703	0.00022743401
0.11254849	0.051498521	0.0010535135	0.00022743401
0.11274542	0.054191362	0.0011103634	0.00022743401
0.11294235	0.058973271	0.0012101554	0.00022743687
0.11313929	0.049936522	0.0010227581	0.00022743401
0.11333623	0.052454889	0.0010701158	0.00022743401
0.11353316	0.065116279	0.0013346242	0.00022742792
0.1137301	0.067647062	0.0013820701	0.00022743401
0.11392703	0.058158997	0.001185113	0.00022743079
0.11412397	0.056698866	0.001157773	0.00022742792
0.1143209	0.067675494	0.0013829955	0.00022742792
0.11451784	0.065717876	0.0013398801	0.00022742792
0.11471477	0.068401173	0.0013965579	0.00022742792
0.11491171	0.075807787	0.0015384229	0.00022743079
0.11510865	0.078464106	0.0015983152	0.00022742792
0.11530558	0.077435471	0.0015753289	0.00022742792
0.11550251	0.07026349	0.001432399	0.00022742792
0.11569945	0.077911317	0.001581362	0.00022742792
0.11589638	0.079851054	0.0016193265	0.00022743079
0.11609332	0.072343946	0.0014665165	0.00022742792
0.11629026	0.081539735	0.0016545147	0.00022742792
0.11648719	0.07193055	0.0014580098	0.00022742184
0.11668412	0.07679604	0.0015563515	0.00022742184
0.11688106	0.071251035	0.0014456697	0.00022742471
0.117078	0.071957238	0.0014546285	0.00022742184
0.11727493	0.07941056	0.0016023862	0.00022742184
0.11747187	0.071633235	0.0014446237	0.00022742184
0.1176688	0.070930712	0.0014318035	0.00022742184
0.11786573	0.064356439	0.0013024685	0.00022742471
0.11806267	0.071049407	0.001431155	0.00022742184
0.11825961	0.06636624	0.0013388272	0.00022742184
0.11845654	0.061638281	0.0012366951	0.00022742184
0.11865348	0.068376072	0.0013748197	0.00022742184
0.11885041	0.061859895	0.0012475018	0.00022741863
0.11904735	0.069230773	0.001388436	0.00022741576
0.11924428	0.062652566	0.0012591627	0.00022741576
0.11944122	0.064724922	0.0012976399	0.00022741576
0.11963815	0.068237208	0.0013709265	0.00022741576
0.11983509	0.065889917	0.0013162491	0.00022741863
0.12003203	0.071890146	0.0014402953	0.00022741576
0.12022896	0.067452252	0.0013548759	0.00022741576
0.12042589	0.089878544	0.0018040063	0.00022741576
0.12062283	0.074949898	0.0014960502	0.00022741576
0.12081976	0.067789808	0.0013533747	0.00022741863
0.1210167	0.078000002	0.0015554832	0.00022741576
0.12121364	0.08441034	0.0016917909	0.00022740968
0.12141057	0.080239519	0.001598758	0.00022740968
0.1216075	0.084636986	0.0016907448	0.00022741576
0.12180444	0.087579615	0.0017425439	0.00022741254
0.12200138	0.088082902	0.0017540319	0.00022740968
0.12219831	0.093450479	0.0018630387	0.00022741576
0.12239525	0.092277229	0.0018320235	0.00022741576
0.12259218	0.10547343	0.0021039913	0.00022740968
0.12278911	0.087544769	0.0017420828	0.00022741254
0.12298606	0.093328036	0.0018556091	0.00022740968
0.12318299	0.09976247	0.0019807776	0.00022740968
0.12337992	0.10160848	0.002008386	0.00022740968
0.12357686	0.10432368	0.002073169	0.00022740968
0.12377379	0.093243778	0.0018492205	0.00022740646
0.12397073	0.10501382	0.0020821195	0.00022740968
0.12416767	0.11704635	0.0023155361	0.00022740359
0.1243646	0.13205329	0.0026098893	0.00022740359
0.12456153	0.13998422	0.0027754435	0.00022740359
0.12475847	0.132837	0.0026252498	0.00022740646
0.12495541	0.14010233	0.0027749778	0.00022739463
0.12515233	0.17396404	0.0034354927	0.00022740323
0.12534928	0.19190346	0.0037819783	0.00022739751
0.12554622	0.24716465	0.0048835143	0.00022739751
0.12574315	0.38787407	0.007641708	0.00022739751
0.12594008	0.62758893	0.012400977	0.00022739751
0.12613702	0.97201711	0.019155666	0.00022740968
0.12633395	1.4343079	0.028312579	0.00022740968
0.12653089	2.2269559	0.043816503	0.00022739751
0.12672782	3.1290572	0.06149736	0.00022739751
0.12692475	4.2792058	0.084431432	0.00022739751
0.12712169	5.3177643	0.10403801	0.00022740323
0.12731864	6.3876362	0.12593926	0.00022739751
0.12751557	7.1346674	0.13993832	0.00022739751
0.1277125	7.723846	0.15146752	0.00022739751
0.12790944	7.7462339	0.15223062	0.00022739751
0.12810637	7.5801616	0.14862357	0.00022739751
0.1283033	7.2016096	0.14098504	0.00022739751
0.12850024	6.5097737	0.12744018	0.00022739751
0.12869717	5.8565965	0.11451981	0.00022738535
0.12889411	5.1375337	0.10068714	0.00022739751
0.12909104	4.5142641	0.088029988	0.00022740323
0.12928799	3.9363496	0.077065431	0.00022739751
0.12948492	3.226222	0.062787712	0.00022739751
0.12968186	2.65342	0.051855259	0.00022738535
0.12987879	2.1393754	0.041735541	0.00022738535
0.13007572	1.6935301	0.03293138	0.00022738535
0.13027266	1.3249619	0.025837168	0.00022738535
0.13046959	0.94557822	0.018375803	0.00022738535
0.13066652	0.71861964	0.013988354	0.00022738535
0.13086346	0.53308129	0.010360479	0.00022739751
0.13106039	0.40322581	0.0078048948	0.00022740323
0.13125734	0.33764258	0.0065797046	0.00022738535
0.13145427	0.30616078	0.0059297285	0.00022738535
0.13165121	0.26101694	0.0050615682	0.00022738535
0.13184814	0.26114649	0.0050510215	0.00022738535
0.13204508	0.2231808	0.0043185307	0.00022738535
0.13224201	0.22432025	0.00435529	0.00022738535
0.13243894	0.22047833	0.004258282	0.00022738535
0.13263588	0.21050671	0.0040592728	0.00022738535
0.13283281	0.18848167	0.0036408375	0.00022738535
0.13302974	0.186003	0.0035943221	0.00022739106
0.13322669	0.19104478	0.0036861936	0.00022738535
0.13342363	0.17568569	0.0033782364	0.00022738535
0.13362056	0.16115856	0.003101317	0.00022738535
0.13381749	0.16175923	0.0031190726	0.00022737318
0.13401443	0.16629465	0.0032035836	0.00022737318
0.13421136	0.16289425	0.0031335908	0.00022738535
0.1344083	0.15512159	0.0029736406	0.00022737318
0.13460523	0.15927568	0.0030580969	0.00022737318
0.13480216	0.16133828	0.0031070036	0.00022737318
0.1349991	0.15037037	0.0028901452	0.0002273789
0.13519605	0.13900037	0.0026512637	0.00022737318
0.13539298	0.1203258	0.0023113373	0.00022737318
0.13558991	0.12710623	0.0024287296	0.00022737318
0.13578685	0.13597941	0.0026030359	0.00022737318
0.13598378	0.13255218	0.0025326503	0.00022737318
0.13618071	0.13291605	0.0025465554	0.00022737318
0.13637765	0.12815818	0.0024482668	0.00022737318
0.13657458	0.1322616	0.0025245382	0.00022737318
0.13677152	0.11989796	0.0022851836	0.00022737318
0.13696845	0.11337209	0.002157483	0.00022737318
0.13716538	0.11025922	0.0021029774	0.0002273789
0.13736233	0.11598975	0.0022146802	0.00022737318
0.13755926	0.11018786	0.0020906895	0.00022737318
0.1377562	0.1190823	0.0022684201	0.00022737318
0.13795313	0.11502177	0.0021872295	0.00022736102
0.13815007	0.11375948	0.0021582409	0.00022736102
0.138347	0.10768673	0.0020465327	0.00022737318
0.13854393	0.10215827	0.0019337537	0.00022737318
0.13874087	0.10181818	0.0019379328	0.00022736102
0.1389378	0.10469314	0.0019856277	0.00022736102
0.13913473	0.10999642	0.0020786219	0.00022736673
0.13933168	0.10675773	0.0020202189	0.00022737318
0.13952862	0.11526033	0.0021805721	0.00022737318
0.13972555	0.10065407	0.001915231	0.00022736102
0.13992248	0.10548824	0.0019876666	0.00022736102
0.14011942	0.096091792	0.001816038	0.00022736102
0.14031635	0.096566521	0.0018227298	0.00022737318
0.14051329	0.10381734	0.0019572405	0.00022736102
0.14071022	0.10010764	0.0018926651	0.00022736102
0.14090715	0.09709426	0.0018238249	0.00022736102
0.14110409	0.093538024	0.0017636549	0.00022736673
0.14130104	0.09828449	0.0018543513	0.00022736102
0.14149797	0.099929132	0.0018775568	0.00022736102
0.1416949	0.091521814	0.0017202036	0.00022734885
0.14189184	0.089045934	0.0016704412	0.00022736102
0.14208877	0.10607143	0.0020007216	0.00022736102
0.1422857	0.080467917	0.0015115151	0.00022736102
0.14248264	0.088101089	0.0016470207	0.00022736102
0.14267957	0.080496453	0.0015125552	0.00022736102
0.14287651	0.095606327	0.0017889502	0.00022736102
0.14307344	0.082802549	0.0015539789	0.00022735457
0.14327039	0.083274774	0.0015572278	0.00022736102
0.14346732	0.10802252	0.002022743	0.00022734885
0.14366426	0.092313096	0.0017261974	0.00022734885
0.14386119	0.084591083	0.0015811988	0.00022736102
0.14405812	0.087215409	0.0016287398	0.00022734885
0.14425506	0.081618413	0.001520816	0.00022734885
0.14445199	0.07400912	0.0013824981	0.00022734885
0.14464892	0.081783079	0.0015287305	0.00022734885
0.14484586	0.078554049	0.0014611104	0.00022734885
0.14504279	0.080543935	0.0015003087	0.00022735457
0.14523974	0.079129234	0.0014673915	0.00022734885
0.14543667	0.078919679	0.0014742805	0.00022733668
0.14563361	0.08746963	0.0016261488	0.00022734885
0.14583054	0.095238097	0.0017721021	0.00022734885
0.14602748	0.071947426	0.0013345913	0.00022734885
0.14622441	0.088958114	0.0016514877	0.00022733668
0.14642134	0.085003458	0.0015765919	0.00022734885
0.14661828	0.079201102	0.001466267	0.00022733668
0.14681521	0.085268632	0.0015840811	0.00022733668
0.14701214	0.072783716	0.0013482703	0.0002273424
0.14720909	0.078883916	0.0014605721	0.00022733668
0.14740603	0.066873491	0.0012380093	0.00022733668
0.14760296	0.086171664	0.0015869782	0.00022733668
0.14779989	0.068894245	0.0012752431	0.00022733668
0.14799683	0.07578367	0.0014029988	0.00022733668
0.14819376	0.077266484	0.0014284494	0.00022733668
0.1483907	0.080451898	0.0014852528	0.00022733668
0.14858763	0.065350577	0.0012023892	0.00022733668
0.14878456	0.080384746	0.0014864618	0.00022733668
0.1489815	0.079322033	0.0014568918	0.0002273424
0.14917845	0.073253833	0.0013486495	0.00022733668
0.14937538	0.074010916	0.0013634999	0.00022733668
0.14957231	0.065695904	0.0012055783	0.00022733668
0.14976925	0.068150684	0.0012578125	0.00022733668
0.14996618	0.066397034	0.0012155644	0.00022733668
0.15016311	0.070508473	0.0012949305	0.00022732452
0.15036005	0.071404286	0.0013132152	0.00022732452
0.15055698	0.076819405	0.0014065804	0.00022733668
0.15075392	0.070700206	0.0012998539	0.00022733668
0.15095085	0.078161694	0.0014278366	0.00022733024
0.1511478	0.071404517	0.0013070207	0.00022732452
0.15134473	0.075076088	0.0013769593	0.00022733668
0.15154167	0.072458908	0.0013239832	0.00022732452
0.1517386	0.071670048	0.0013144366	0.00022732452
0.15193553	0.07367716	0.0013450709	0.00022732452
0.15213247	0.072941177	0.0013339282	0.00022733668
0.1523294	0.072075091	0.0013164255	0.00022732452
0.15252633	0.066311233	0.0012073196	0.00022732452
0.15272327	0.066242889	0.0012082903	0.00022732452
0.1529202	0.068401732	0.0012460543	0.00022733024
0.15311715	0.061032865	0.0011143328	0.00022732452
0.15331408	0.061482221	0.0011174864	0.00022732452
0.15351102	0.0625	0.0011361747	0.00022732452
0.15370795	0.053910151	0.00098026334	0.00022731235
0.15390489	0.061564058	0.0011196856	0.00022732452
0.15410182	0.062189877	0.0011279525	0.00022732452
0.15429875	0.060797341	0.0011048442	0.00022732452
0.15449569	0.065405048	0.0011885455	0.00022731235
0.15469262	0.061548643	0.0011163705	0.00022731235
0.15488955	0.053359684	0.00096524914	0.00022731809
0.1550865	0.067523055	0.0012221191	0.00022732452
0.15528344	0.059973493	0.0010882497	0.00022731235
0.15548037	0.064590923	0.001172351	0.00022731235
0.1556773	0.060983606	0.0011011272	0.00022731235
0.15587424	0.063591436	0.0011510929	0.00022731235
0.15607117	0.054830287	0.00098722987	0.00022731235
0.1562681	0.057698648	0.0010445477	0.00022731235
0.15646504	0.067017086	0.0012115507	0.00022732452
0.15666197	0.057880968	0.0010434281	0.00022731235
0.15685891	0.064727038	0.0011669596	0.00022731809
0.15705585	0.065905385	0.0011870054	0.00022731235
0.15725279	0.058611657	0.0010571703	0.00022731235
0.15744972	0.065019503	0.0011688818	0.00022731235
0.15764666	0.057291668	0.0010301914	0.00022731235
0.15784359	0.058688525	0.0010594506	0.00022731235
0.15804052	0.054798961	0.00098341459	0.00022731235
0.15823746	0.070707068	0.0012727549	0.00022731235
0.15843439	0.056664519	0.001013551	0.00022731235
0.15863132	0.06549935	0.0011762547	0.00022730019
0.15882826	0.060260586	0.0010840236	0.00022731809
0.15902521	0.055914674	0.0010018764	0.00022730019
0.15922214	0.062196307	0.0011158373	0.00022730019
0.15941907	0.065105841	0.0011626421	0.00022731235
0.15961601	0.059566204	0.0010681747	0.00022730019
0.15981294	0.065679327	0.0011752534	0.00022730019
0.16000988	0.054088861	0.00096713321	0.00022730019
0.16020681	0.052495975	0.00093867688	0.00022730019
0.16040374	0.059313882	0.0010586386	0.00022730019
0.16060068	0.057704706	0.0010324329	0.00022730019
0.16079761	0.054864433	0.00097674946	0.00022730592
0.16099456	0.053269539	0.00094780186	0.00022730019
0.16119149	0.054393306	0.0009723081	0.00022730019
0.16138843	0.058202751	0.0010372178	0.00022730019
0.16158536	0.05350849	0.0009544284	0.00022730019
0.16178229	0.049571019	0.00088014972	0.00022728802
0.16197923	0.055839185	0.0009941957	0.00022728802
0.16217616	0.058169104	0.0010336943	0.00022728802
0.1623731	0.065902576	0.0011724946	0.00022728802
0.16257003	0.056807362	0.0010085369	0.00022728802
0.16276696	0.067344345	0.0011967287	0.00022730592
0.16296391	0.059085134	0.0010495558	0.00022728802
0.16316085	0.055994939	0.00099245808	0.00022730019
0.16335778	0.058525782	0.0010375769	0.00022728802
0.16355471	0.053577058	0.00094769389	0.00022728802
0.16375165	0.054874111	0.00098218233	0.00022728802
0.16394858	0.057880968	0.0010428915	0.00022728802
0.16414551	0.055501144	0.00099938037	0.00022728802
0.16434245	0.054196961	0.00098172866	0.00022728802
0.16453938	0.049867023	0.00090549444	0.00022728802
0.16473632	0.050116941	0.00091235165	0.00022729376
0.16493326	0.057277627	0.0010475676	0.00022728802
0.1651302	0.05132506	0.00093627814	0.00022727586
0.16532713	0.059849523	0.0011031402	0.00022728802
0.16552407	0.054163847	0.00099275121	0.00022727586
0.165721	0.049152542	0.00090143678	0.00022728802
0.16591793	0.06625472	0.0012237371	0.00022727586
0.16611487	0.050051421	0.00092273811	0.00022727586
0.1663118	0.057291668	0.0010638037	0.00022728802
0.16650873	0.058783088	0.0010862442	0.00022728802
0.16670567	0.057526696	0.0010638285	0.00022728159
0.16690262	0.058006253	0.0010771212	0.00022727586
0.16709955	0.045977011	0.00085456966	0.00022727586
0.16729648	0.046699438	0.00087132864	0.00022727586
0.16749342	0.048398327	0.00089930301	0.00022727586
0.16769035	0.050717033	0.00094477541	0.00022727586
0.16788729	0.047316384	0.00088516611	0.00022727586
0.16808422	0.046592489	0.00086502562	0.00022727586
0.16828115	0.053134963	0.00099613634	0.00022727586
0.16847809	0.050930806	0.00095071015	0.00022726369
0.16867502	0.053008597	0.00099938898	0.00022728159
0.16887197	0.044341967	0.00083152635	0.00022727586
0.1690689	0.046257064	0.00086523825	0.00022726369
0.16926584	0.045486853	0.00085374975	0.00022727586
0.16946277	0.060541309	0.0011385762	0.00022727586
0.1696597	0.047105357	0.00088946481	0.00022726369
0.16985664	0.051300321	0.00096437609	0.00022726369
0.17005357	0.060735978	0.0011441127	0.00022727586
0.17025051	0.051024076	0.00096348493	0.00022726369
0.17044744	0.055216923	0.001041592	0.00022726369
0.17064437	0.063063063	0.0011931024	0.00022726943
0.17084132	0.051475883	0.00097273011	0.00022727586
0.17103826	0.052094717	0.00099037483	0.00022726369
0.17123519	0.058269996	0.0011043557	0.00022726369
0.17143212	0.047533311	0.00089812221	0.00022726369
0.17162906	0.054288816	0.001028671	0.00022726369
0.17182599	0.050884157	0.00096274429	0.00022726369
0.17202292	0.039027981	0.00074433518	0.00022726369
0.17221986	0.051542651	0.00097801676	0.00022726369
0.17241679	0.047028802	0.00089386461	0.00022726369
0.17261373	0.051039007	0.00097010861	0.00022725726
0.17281067	0.052056789	0.00098929333	0.00022726369
0.17300761	0.04768892	0.0009095993	0.00022726369
0.17320454	0.049927115	0.00094939332	0.00022725153
0.17340147	0.044682421	0.00085471466	0.00022725153
0.17359841	0.050866202	0.00097207376	0.00022725153
0.17379534	0.044803526	0.00085476239	0.00022726369
0.17399228	0.053171985	0.001013816	0.00022726369
0.17418921	0.04105572	0.00078198593	0.00022725153
0.17438614	0.056196503	0.0010795748	0.00022725153
0.17458308	0.053097345	0.0010153479	0.00022725726
0.17478003	0.04553869	0.00087200798	0.00022725153
0.17497696	0.049168207	0.00094117591	0.00022725153
0.17517389	0.048493754	0.00092484005	0.00022725153
0.17537083	0.044211317	0.000851497	0.00022723936
0.17556776	0.043205317	0.00082648895	0.00022723936
0.17576469	0.047690015	0.00091647357	0.00022723936
0.17596163	0.039611362	0.00076177419	0.00022725153
0.17615856	0.03858998	0.00073956256	0.00022725153
0.1763555	0.055452175	0.0010656331	0.00022725153
0.17655243	0.042687453	0.0008182532	0.00022724509
0.17674938	0.038317055	0.00073850009	0.00022723936
0.17694631	0.047619049	0.00091781205	0.00022723936
0.17714325	0.049008604	0.00094380853	0.00022725153
0.17734018	0.043559894	0.00083986932	0.00022723936
0.17753711	0.047973223	0.00092076074	0.00022723936
0.17773405	0.04207363	0.0008105319	0.00022723936
0.17793098	0.043773584	0.00084637542	0.00022723936
0.17812791	0.051031895	0.00098416861	0.00022723936
0.17832485	0.044377584	0.0008563677	0.00022723936
0.17852178	0.038765524	0.00074768125	0.00022724509
0.17871873	0.046810117	0.00090509653	0.00022723936
0.17891566	0.043265615	0.00083525403	0.00022723936
0.1791126	0.049867775	0.00096515554	0.00022722721
0.17930953	0.041902605	0.000809955	0.00022723936
0.17950647	0.045489006	0.0008815772	0.00022723936
0.1797034	0.0415879	0.0008045017	0.00022723936
0.17990033	0.046397585	0.00089703663	0.00022723936
0.18009727	0.036882129	0.00071483129	0.00022722721
0.1802942	0.036728512	0.00071059866	0.00022722721
0.18049113	0.038270187	0.00074423233	0.00022723294
0.18068808	0.039787799	0.00077032909	0.00022722721
0.18088502	0.041682456	0.00080731465	0.00022722721
0.18108195	0.047256097	0.00091842562	0.00022722721
0.18127888	0.037628278	0.00072956359	0.00022722721
0.18147582	0.041221373	0.00080118701	0.00022722721
0.18167275	0.038315631	0.00074183679	0.00022722721
0.18186969	0.039846744	0.0007755527	0.00022722721
0.18206662	0.043711655	0.00085141452	0.00022722721
0.18226355	0.040121119	0.0007763186	0.00022721505
0.18246049	0.041043345	0.000799598	0.00022723294
0.18265744	0.040091638	0.00077917095	0.00022721505
0.18285437	0.039969254	0.00077927834	0.00022722721
0.1830513	0.037706811	0.00073529477	0.00022722721
0.18324824	0.040761903	0.00079124689	0.00022721505
0.18344517	0.033435818	0.00065060478	0.00022721505
0.1836421	0.043711655	0.00085148076	0.00022721505
0.18383904	0.043846153	0.00085548073	0.00022721505
0.18403597	0.042275172	0.00082452886	0.00022721505
0.18423291	0.041554444	0.0008107074	0.00022721505
0.18442984	0.039907012	0.00078117527	0.00022722078
0.18462679	0.046779141	0.00091167737	0.00022721505
0.18482372	0.038951021	0.00076089648	0.00022721505
0.18502066	0.042659491	0.00083213858	0.00022721505
0.18521759	0.044856921	0.00087733398	0.00022721505
0.18541452	0.039891556	0.00078034919	0.00022721505
0.18561146	0.04203625	0.00082117529	0.00022721505
0.18580839	0.034309946	0.00066904339	0.00022721505
0.18600532	0.045296166	0.00088675373	0.00022720288
0.18620226	0.031819947	0.00062273088	0.00022721505
0.18639919	0.040666152	0.00079605426	0.00022722078
0.18659614	0.037984498	0.0007432765	0.00022720288
0.18679307	0.03705148	0.00072726933	0.00022720288
0.18699001	0.031310398	0.000611139	0.00022720288
0.18718694	0.035005834	0.00068589731	0.00022720288
0.18738388	0.042626727	0.00083090726	0.00022720288
0.18758081	0.039231069	0.00077275309	0.00022721505
0.18777774	0.042362999	0.00083098171	0.00022720288
0.18797468	0.040887851	0.00080235297	0.00022720288
0.18817161	0.045985971	0.00090374262	0.00022719071
0.18836854	0.0499226	0.00097751606	0.00022720861
0.18856549	0.038552321	0.00076024793	0.00022719071
0.18876243	0.034254573	0.00067158154	0.00022720288
0.18895936	0.0460039	0.0009035499	0.00022720288
0.18915629	0.040640876	0.00079922919	0.00022719071
0.18935323	0.049590003	0.00097489904	0.00022719071
0.18955016	0.041977245	0.00082719338	0.00022720288
0.1897471	0.041197047	0.00080812234	0.00022719071
0.18994403	0.03599374	0.00070769613	0.00022720288
0.19014096	0.040567152	0.00080048834	0.00022719071
0.1903379	0.045932271	0.00090163649	0.00022719646
0.19053484	0.034659315	0.00068271568	0.00022719071
0.19073178	0.039719626	0.00077995314	0.00022719071
0.19092871	0.044453185	0.00087732665	0.00022719071
0.19112565	0.04505929	0.00089130335	0.00022719071
0.19132258	0.044427123	0.00087233848	0.00022719071
0.19151951	0.049625836	0.00098045624	0.00022719071
0.19171645	0.037706207	0.00074279011	0.00022719071
0.19191338	0.034659315	0.00068307371	0.00022717856
0.19211031	0.040392157	0.00079569285	0.00022719071
0.19230725	0.040439732	0.00079694728	0.00022719646
0.1925042	0.040889241	0.00080988737	0.00022719071
0.19270113	0.039732493	0.00078336865	0.00022719071
0.19289806	0.03308389	0.0006521293	0.00022719071
0.193095	0.043869957	0.00086404162	0.00022717856
0.19329193	0.0325526	0.00064426754	0.00022719071
0.19348887	0.044699367	0.00088434556	0.00022717856
0.1936858	0.038930397	0.00076752628	0.00022717856
0.19388273	0.051302288	0.0010145641	0.00022717856
0.19407967	0.040348101	0.00079815229	0.00022717856
0.1942766	0.0354723	0.00070351321	0.0002271843
0.19447355	0.039123632	0.00076950254	0.00022717856
0.19467048	0.041617122	0.00082384166	0.00022717856
0.19486742	0.038370252	0.00075845211	0.0002271664
0.19506435	0.05125149	0.0010169341	0.0002271664
0.19526128	0.043478262	0.00086386915	0.0002271664
0.19545822	0.043086566	0.00084831263	0.0002271664
0.19565515	0.036443733	0.00072419824	0.0002271664
0.19585209	0.033333335	0.00065980374	0.0002271664
0.19604902	0.038796518	0.0007675644	0.0002271664
0.19624595	0.035856575	0.0007113227	0.00022717213
0.1964429	0.039795116	0.00078553322	0.00022717856
0.19663984	0.03846154	0.00076522399	0.0002271664
0.19683677	0.03634927	0.00071812287	0.0002271664
0.1970337	0.036741216	0.00072924665	0.0002271664
0.19723064	0.041319031	0.00081886002	0.0002271664
0.19742757	0.041302621	0.00081867847	0.0002271664
0.1976245	0.03693296	0.0007355797	0.00022715423
0.19782144	0.035629455	0.00070475024	0.0002271664
0.19801837	0.033945687	0.0006741258	0.0002271664
0.19821531	0.033506181	0.00066494313	0.00022715998
0.19841225	0.037420381	0.00074218877	0.0002271664
0.19860919	0.039231386	0.00078026095	0.00022715423
0.19880612	0.03250099	0.00064273574	0.00022715423
0.19900306	0.041817449	0.00083403516	0.00022715423
0.19919999	0.037096132	0.00073600467	0.00022715423
0.19939692	0.037848607	0.00075086788	0.00022715423
0.19959386	0.037096772	0.00074003678	0.0002271664
0.19979079	0.039808918	0.00078917184	0.00022715423
0.19998772	0.04008016	0.00079765613	0.00022715423
0.20018466	0.043062203	0.00085508631	0.00022715998
0.20038161	0.03699236	0.00073682587	0.00022715423
0.20057854	0.037615046	0.00074755982	0.00022715423
0.20077547	0.038753495	0.00076934777	0.00022715423
0.20097241	0.037051953	0.00073896116	0.00022715423
0.20116934	0.041134186	0.00081725453	0.00022715423
0.20136628	0.038229376	0.00076214335	0.00022714208
0.20156321	0.046837471	0.00093226571	0.00022715423
0.20176014	0.043127771	0.00086090545	0.00022714208
0.20195708	0.043634906	0.00086824695	0.00022715423
0.20215401	0.038106699	0.00075856235	0.00022715998
0.20235096	0.037857432	0.00075523095	0.00022714208
0.20254789	0.036814727	0.00073169952	0.00022714208
0.20274483	0.04097363	0.00081987574	0.00022714208
0.20294176	0.042817127	0.000851469	0.00022714208
0.20313869	0.040016167	0.00079969782	0.00022714208
0.20333563	0.02989899	0.0005965961	0.00022714208
0.20353256	0.03624054	0.00071876496	0.00022712992
0.2037295	0.034118604	0.00068325928	0.00022712992
0.20392643	0.043652382	0.00086899055	0.00022714208
0.20412336	0.037337661	0.00074761547	0.00022714782
0.20432031	0.040709391	0.00081300456	0.00022714208
0.20451725	0.040497195	0.00080593547	0.00022714208
0.20471418	0.041429732	0.00083006185	0.00022712992
0.20491111	0.030787684	0.00061132398	0.00022714208
0.20510805	0.042259242	0.00084713049	0.00022712992
0.20530498	0.043214861	0.00086336228	0.00022712992
0.20550191	0.035327177	0.000703283	0.00022712992
0.20569885	0.039591838	0.00079513498	0.00022712992
0.20589578	0.033279873	0.00066191953	0.00022712992
0.20609272	0.035845213	0.00071881106	0.00022713565
0.20628966	0.041112456	0.00082094275	0.00022712992
0.2064866	0.030425964	0.00060829968	0.00022711777
0.20668353	0.036178861	0.00072473276	0.00022712992
0.20688047	0.038275585	0.00076326868	0.00022712992
0.2070774	0.036061589	0.00072130363	0.00022711777
0.20727433	0.038260169	0.0007634926	0.00022711777
0.20747127	0.0395112	0.00079270679	0.00022711777
0.2076682	0.036555644	0.00073222886	0.00022712992
0.20786513	0.035165723	0.00070240954	0.00022712992
0.20806207	0.041123778	0.00082479668	0.0002271235
0.20825902	0.035123132	0.00070057012	0.00022711777
0.20845595	0.037489813	0.0007520105	0.00022711777
0.20865288	0.02989899	0.00059648551	0.00022711777
0.20884982	0.035116374	0.00070541608	0.00022711777
0.20904675	0.034174126	0.00068492797	0.00022711777
0.20924369	0.035699796	0.00071453431	0.0002271056
0.20944062	0.040097207	0.00080254284	0.00022711777
0.20963755	0.049047425	0.00098271691	0.00022711777
0.20983449	0.036595393	0.00073728641	0.00022711777
0.21003142	0.033685066	0.00067384809	0.00022711133
0.21022837	0.03257329	0.00065266714	0.00022711777
0.2104253	0.03422983	0.00068670214	0.00022711777
0.21062224	0.039500203	0.0007885446	0.0002271056
0.21081917	0.037906881	0.00076432142	0.0002271056
0.2110161	0.030769231	0.00061482459	0.0002271056
0.21121304	0.030944625	0.00062019873	0.0002271056
0.21140997	0.033428457	0.00067064923	0.0002271056
0.2116069	0.032271244	0.00064770877	0.0002271056
0.21180384	0.042979944	0.00086472323	0.0002271056
0.21200077	0.039999999	0.00079954334	0.00022711133
0.21219772	0.039094649	0.00078869861	0.00022709343
0.21239465	0.031224322	0.00062829629	0.0002271056
0.21259159	0.0434606	0.00087019888	0.0002271056
0.21278852	0.037551019	0.00075439439	0.0002271056
0.21298546	0.03409091	0.00068223145	0.00022709343
0.21318239	0.028052805	0.00056470104	0.00022709343
0.21337932	0.031655844	0.00063354155	0.00022709343
0.21357626	0.032284431	0.00064821122	0.0002271056
0.21377319	0.04085844	0.00082508218	0.0002271056
0.21397012	0.035002034	0.00070120406	0.00022709918
0.21416707	0.02901512	0.00058205787	0.00022709343
0.21436401	0.034651447	0.00069487101	0.00022709343
0.21456094	0.032867707	0.000661642	0.00022709343
0.21475787	0.039408866	0.00079410896	0.00022708128
0.21495481	0.03351042	0.00067271182	0.00022709343
0.21515174	0.041786153	0.00084112503	0.00022709343
0.21534868	0.040933277	0.00082351232	0.00022708128
0.21554561	0.044874433	0.00090581807	0.00022709343
0.21574254	0.039215688	0.00078836275	0.00022708128
0.21593948	0.041563787	0.00083857024	0.00022709918
0.21613643	0.042692941	0.00086020649	0.00022708128
0.21633336	0.042230424	0.00085063232	0.00022708128
0.21653029	0.037797865	0.00076075265	0.00022708128
0.21672723	0.039983679	0.00080332212	0.00022709343
0.21692416	0.039175257	0.00079096213	0.00022708128
0.21712109	0.033264887	0.00066956523	0.00022708128
0.21731803	0.032854211	0.00066123437	0.00022708128
0.21751496	0.040757515	0.00082236616	0.00022708128
0.2177119	0.03299389	0.00066139875	0.00022708128
0.21790883	0.029081844	0.00058815221	0.00022708702
0.21810578	0.029411765	0.00058996596	0.00022708128
0.21830271	0.024793388	0.00049974176	0.00022708128
0.21849965	0.034156378	0.00068814319	0.00022706912
0.21869658	0.029459901	0.00059129921	0.00022708128
0.21889351	0.030265341	0.00061132561	0.00022706912
0.21909045	0.027447768	0.00055075268	0.00022706912
0.21928738	0.030540653	0.00061613513	0.00022706912
0.21948431	0.033415843	0.00067381607	0.00022706912
0.21968125	0.036169339	0.00072848867	0.00022706912
0.21987818	0.037144035	0.00074969954	0.00022707487
0.22007513	0.02947196	0.00059177831	0.00022706912
0.22027206	0.029863127	0.00060360046	0.00022706912
0.220469	0.027914613	0.00056090322	0.00022706912
0.22066593	0.031870861	0.00064354145	0.00022705697
0.22086287	0.030465212	0.00061271503	0.00022705697
0.2210598	0.032962505	0.00066419091	0.00022705697
0.22125673	0.028547786	0.00057583465	0.00022705697
0.22145367	0.030578513	0.00061716698	0.00022705697
0.2216506	0.03305785	0.00066707522	0.00022706912
0.22184753	0.030452674	0.00061301957	0.00022707487
0.22204448	0.032780085	0.00066255126	0.00022705697
0.22224142	0.025990099	0.00052325282	0.00022705697
0.22243835	0.038350515	0.00077428954	0.00022705697
0.22263528	0.033167496	0.00067050353	0.00022705697
0.22283222	0.030838815	0.00062072446	0.00022704482
0.22302915	0.031223981	0.00063204864	0.00022705697
0.22322609	0.03510946	0.00070859567	0.00022704482
0.22342302	0.030415125	0.00061177241	0.00022704482
0.22361995	0.0249066	0.00050274213	0.00022705697
0.22381689	0.028488852	0.00057417486	0.0002270627
0.22401384	0.032567851	0.00066089985	0.00022704482
0.22421077	0.031687241	0.00063809659	0.00022704482
0.2244077	0.028985508	0.00058535306	0.00022704482
0.22460464	0.027465668	0.00055562664	0.00022704482
0.22480157	0.030390143	0.00061101874	0.00022704482
0.2249985	0.026415095	0.00053559104	0.00022704482
0.22519544	0.028688524	0.00057590054	0.00022704482
0.22539237	0.021621622	0.00043639191	0.00022704482
0.22558931	0.028858218	0.00058550405	0.00022704482
0.22578624	0.035962403	0.00072224491	0.00022703838
0.22598319	0.030820491	0.00062427676	0.00022703265
0.22618012	0.031004548	0.00062573561	0.00022704482
0.22637706	0.027626622	0.00056078029	0.00022704482
0.22657399	0.031910487	0.000644963	0.00022703265
0.22677092	0.031923715	0.00064514321	0.00022703265
0.22696786	0.03233831	0.00065414212	0.00022703265
0.22716479	0.031884059	0.00064460281	0.00022704482
0.22736172	0.037641153	0.00076508935	0.00022703265
0.22755866	0.032231405	0.00065014104	0.00022703265
0.22775559	0.030505642	0.00061897573	0.00022703265
0.22795253	0.038142622	0.00077183294	0.00022703838
0.22814947	0.040697675	0.00082485162	0.00022703265
0.22834641	0.038971808	0.00078855525	0.00022703265
0.22854334	0.028250935	0.00057119754	0.0002270205
0.22874027	0.026481714	0.00053775695	0.00022703265
0.22893721	0.030953364	0.00062384846	0.00022703265
0.22913414	0.029950082	0.00060612039	0.0002270205
0.22933108	0.030315615	0.00061320036	0.0002270205
0.22952801	0.032930389	0.00066689675	0.0002270205
0.22972494	0.029154519	0.0005899911	0.0002270205
0.22992188	0.035240464	0.00071276602	0.00022703838
0.23011883	0.025359256	0.00051680394	0.0002270205
0.23031576	0.028901733	0.00058245432	0.0002270205
0.23051269	0.025384935	0.00051312731	0.0002270205
0.23070963	0.032083333	0.00065009983	0.0002270205
0.23090656	0.029850746	0.00060346146	0.00022700834
0.23110349	0.031040268	0.00063049881	0.00022700834
0.23130043	0.027534418	0.00055797485	0.0002270205
0.23149736	0.035357736	0.00071612629	0.0002270205
0.2316943	0.029657478	0.0006011324	0.0002270205
0.23189123	0.033208799	0.00067143695	0.00022701408
0.23208818	0.030176027	0.00061239203	0.00022700834
0.23228511	0.026644463	0.00053842814	0.00022700834
0.23248205	0.037191808	0.00075538608	0.00022700834
0.23267898	0.036866359	0.00074955268	0.00022700834
0.23287591	0.025353283	0.00051146606	0.00022700834
0.23307285	0.028021749	0.00056786317	0.00022700834
0.23326978	0.030859049	0.00062544877	0.00022700834
0.23346671	0.031302169	0.00063430995	0.00022700834
0.23366365	0.032380152	0.00065891771	0.00022700834
0.23386058	0.02754591	0.00055793335	0.00022701408
0.23405753	0.027250206	0.00054871559	0.00022699618
0.23425446	0.027766092	0.00056463719	0.00022700834
0.2344514	0.026845638	0.00054508058	0.00022699618
0.23464833	0.030087756	0.00061030505	0.00022699618
0.23484527	0.026755853	0.00054194347	0.00022700834
0.2350422	0.029264214	0.00059332448	0.00022700834
0.23523913	0.031079378	0.0006316909	0.00022699618
0.23543607	0.030391341	0.00061503035	0.00022699618
0.235633	0.028010033	0.00056776463	0.00022699618
0.23582993	0.028487641	0.00057839241	0.00022700192
0.23602688	0.033684209	0.0006862352	0.00022698403
0.23622382	0.022509379	0.00045411161	0.00022699618
0.23642075	0.025459098	0.00051495439	0.00022699618
0.23661768	0.02263202	0.00045815014	0.00022698403
0.23681462	0.031144781	0.00063368626	0.00022698403
0.23701155	0.022983702	0.00046533134	0.00022699618
0.23720849	0.027986633	0.00056705321	0.00022698403
0.23740542	0.026448363	0.00053701695	0.00022699618
0.23760235	0.034800839	0.00070740056	0.00022698403
0.23779929	0.031079378	0.00063192553	0.00022698977
0.23799624	0.033806343	0.00068598177	0.00022698403
0.23819317	0.029424127	0.00059819513	0.00022698403
0.2383901	0.034424853	0.00070022675	0.00022698403
0.23858704	0.025974026	0.00052660267	0.00022698403
0.23878397	0.025984911	0.00052749255	0.00022698403
0.2389809	0.02432886	0.00049376499	0.00022697187
0.23917784	0.029844472	0.00060707238	0.00022697187
0.23937477	0.033698399	0.00068688666	0.00022698403
0.23957171	0.023031825	0.00046663632	0.00022697187
0.23976864	0.026688907	0.00054004486	0.00022697762
0.23996559	0.030736841	0.00062543008	0.00022697187
0.24016252	0.021996615	0.00044779544	0.00022697187
0.24035946	0.034086067	0.00069811061	0.00022697187
0.24055639	0.025781911	0.00052535627	0.00022697187
0.24075332	0.020442931	0.00041681519	0.00022697187
0.24095026	0.029172029	0.00059936306	0.00022697187
0.24114719	0.02893617	0.00059184746	0.00022697187
0.24134412	0.020128479	0.00041199275	0.00022697187
0.24154106	0.022433132	0.00046101864	0.00022697187
0.24173799	0.021148037	0.00043363762	0.00022696547
0.24193494	0.024305556	0.00050128088	0.00022697187
0.24213187	0.025387263	0.00052148732	0.00022695972
0.24232881	0.019676432	0.00040673249	0.00022697187
0.24252574	0.027547006	0.00057053479	0.00022695972
0.24272268	0.035371181	0.00073405163	0.00022695972
0.24291961	0.022016732	0.00045708625	0.00022695972
0.24311654	0.023933856	0.00049398682	0.00022695972
0.24331348	0.027543314	0.00057520031	0.00022695972
0.24351041	0.017195767	0.00035625588	0.00022695972
0.24370734	0.025968309	0.00053965329	0.00022696547
0.24390429	0.018683273	0.00038919423	0.00022695972
0.24410123	0.027280858	0.00057183893	0.00022695972
0.24429816	0.026198935	0.00054685934	0.00022694757
0.24449509	0.026496116	0.00056086184	0.00022694757
0.24469203	0.02718894	0.00057815231	0.00022695972
0.24488896	0.03280225	0.00070427707	0.00022694757
0.2450859	0.030559473	0.00065686321	0.00022694757
0.24528283	0.019876951	0.00042733661	0.00022694757
0.24547976	0.019074868	0.00041061183	0.00022694757
0.2456767	0.021174205	0.00045857148	0.0002269533
0.24587364	0.025493026	0.00055353733	0.00022694757
0.24607058	0.020398252	0.00044322718	0.0002269354
0.24626751	0.022286821	0.00048461356	0.00022694757
0.24646445	0.024126045	0.00052862783	0.00022694757
0.24666138	0.028992629	0.00063626393	0.00022694757
0.24685831	0.029600395	0.00065101474	0.0002269354
0.24705525	0.02980626	0.00065763271	0.0002269354
0.24725218	0.019970044	0.00044014098	0.0002269354
0.24744911	0.031171443	0.00069253682	0.00022694757
0.24764605	0.028985508	0.0006417461	0.00022694115
0.247843	0.028197382	0.00062619511	0.0002269354
0.24803993	0.027607363	0.00061771017	0.0002269354
0.24823686	0.031778574	0.00071306049	0.0002269354
0.2484338	0.025967414	0.000578726	0.00022692325
0.24863073	0.023148147	0.00051822793	0.0002269354
0.24882767	0.020061728	0.00044864678	0.00022692325
0.2490246	0.018623902	0.00041711846	0.00022692325
0.24922153	0.029780565	0.00067361869	0.00022692325
0.24941847	0.02335236	0.00052456907	0.00022692325
0.2496154	0.028993146	0.00065887952	0.000226929
0.24981235	0.028511088	0.00064738432	0.00022692965
0.25000927	0.022976501	0.00051808462	0.00022692325
0.2502062	0.0272	0.00062091305	0.0002269354
0.25040314	0.019597458	0.00044400088	0.0002269111
0.25060007	0.025419146	0.00058443716	0.0002269226
0.25079703	0.028846154	0.00066045049	0.0002269111
0.25099397	0.029016657	0.00066561659	0.0002269111
0.2511909	0.028214866	0.00065056223	0.0002269111
0.25138783	0.024771137	0.00056787662	0.0002269111
0.25158477	0.027792916	0.00064158178	0.0002269111
0.2517817	0.038209606	0.00088453008	0.0002269111
0.25197864	0.021369863	0.00049324415	0.0002269111
0.25217557	0.019944599	0.00046190567	0.0002269111
0.2523725	0.024149286	0.00055855705	0.0002269111
0.25256944	0.02668149	0.00062182086	0.0002269111
0.25276637	0.0283176	0.00066009822	0.0002269111
0.2529633	0.030709101	0.00071872619	0.0002268868
0.25316024	0.034346845	0.00080787123	0.0002269111
0.25335717	0.024445707	0.00057429622	0.0002269111
0.25355411	0.02108963	0.00050305709	0.0002269111
0.25375104	0.03068592	0.00074463373	0.0002269111
0.25394797	0.029589372	0.00071865332	0.0002268868
0.25414491	0.02948403	0.00072202121	0.0002269111
0.25434184	0.047438331	0.0011835338	0.0002269111
0.25453877	0.033854168	0.0008531537	0.0002269226
0.25473574	0.028206849	0.00072121125	0.0002268868
0.25493267	0.025885558	0.00066546147	0.0002269111
0.25512961	0.035465926	0.00092491222	0.0002269111
0.25532654	0.031937543	0.00084077765	0.0002269111
0.25552347	0.036416605	0.00097247987	0.0002268868
0.25572041	0.037121214	0.0010107709	0.0002269111
0.25591734	0.033225283	0.00093288766	0.0002269111
0.25611427	0.028374892	0.00081891258	0.0002268868
0.25631121	0.025570776	0.00075816351	0.0002268868
0.25650814	0.023562677	0.00070435653	0.0002268868
0.25670508	0.023233302	0.00070670986	0.0002268868
0.25690201	0.028541226	0.00090979168	0.0002268868
0.25709894	0.028058361	0.00091843918	0.0002268868
0.25729588	0.022432113	0.00074846391	0.0002268868
0.25749281	0.023980815	0.00080557383	0.0002268868
0.25768974	0.032704402	0.0011345898	0.0002268868
0.25788668	0.031047866	0.0010899389	0.0002268868
0.25808361	0.036048066	0.001289719	0.0002268868
0.25828055	0.039671682	0.001439219	0.0002268868
0.25847748	0.028612303	0.0010359426	0.00022689829
0.25867444	0.023289666	0.00086096767	0.00022686248
0.25887138	0.033639144	0.0012861353	0.00022686248
0.25906831	0.037037037	0.0014202446	0.00022686248
0.25926524	0.034865294	0.001351242	0.0002268868
0.25946218	0.028428094	0.0011204153	0.00022686248
0.25965911	0.045840409	0.0018497957	0.0002268868
0.25985605	0.05372617	0.0021974472	0.0002268868
0.26005298	0.032986112	0.0013389263	0.00022686248
0.26024991	0.045454547	0.0018566449	0.00022686248
0.26044685	0.04107143	0.0016888499	0.0002268868
0.26064378	0.039215688	0.0016155561	0.00022686248
0.26084071	0.023381295	0.00094124029	0.00022686248
0.26103765	0.027624309	0.0011353615	0.00022686248
0.26123458	0.027777778	0.0011559033	0.00022686248
0.26143152	0.013207547	0.00053164404	0.0002268868
0.26162845	0.024029575	0.0009935007	0.00022686248
0.26182538	0.036328871	0.0015294536	0.00022686248
0.26202232	0.031311154	0.0013368494	0.00022686248
0.26221925	0.031746034	0.0013705381	0.00022686248
0.26241618	0.026768642	0.0011290124	0.00022684968
0.26261315	0.021825397	0.00092785864	0.00022683818
0.26281008	0.026422765	0.0011382941	0.00022686248
0.26300701	0.039014373	0.0017174826	0.00022686248
0.26320395	0.036217302	0.0015752141	0.00022683818
0.26340088	0.035940804	0.0016049161	0.00022686248
0.26359782	0.029288704	0.0012922562	0.00022683818
0.26379475	0.032051284	0.0014260258	0.00022686248
0.26399168	0.027777778	0.0012270325	0.00022683818
0.26418862	0.019565217	0.00086099782	0.00022683818
0.26438555	0.022371365	0.0010049542	0.00022683818
0.26458248	0.032036614	0.0014784648	0.00022683818
0.26477942	0.035874441	0.00164661	0.00022683818
0.26497635	0.023310022	0.0010689123	0.00022686248
0.26517329	0.037296038	0.0017455264	0.00022683818
0.26537022	0.029339854	0.0013907003	0.00022683818
0.26556715	0.028846154	0.0013350195	0.00022683818
0.26576409	0.024752475	0.0011697346	0.00022683818
0.26596102	0.032828283	0.0015869695	0.00022683818
0.26615795	0.041450776	0.0020369051	0.00022683818
0.26635489	0.040920716	0.0020063031	0.00022684968
0.26655185	0.01591512	0.00074924761	0.00022681388
0.26674879	0.019178081	0.00093063869	0.00022683818
0.26694572	0.024324324	0.0011938544	0.00022683818
0.26714265	0.024657534	0.001218492	0.00022681388
0.26733959	0.036723163	0.0018778967	0.00022681388
0.26753652	0.031428572	0.0016040413	0.00022681388
0.26773345	0.036253776	0.0019107418	0.00022683818
0.26793039	0.014925373	0.00073046086	0.00022683818
0.26812732	0.01775148	0.00088273216	0.00022683818
0.26832426	0.037500001	0.0020102109	0.00022683818
0.26852119	0.034920637	0.001878975	0.00022683818
0.26871812	0.019292604	0.001000275	0.00022683818
0.26891506	0.03215434	0.001732527	0.00022681388
0.26911199	0.02020202	0.0010719099	0.00022683818
0.26930892	0.046979867	0.0026268859	0.00022683818
0.26950586	0.024221454	0.0013213885	0.00022683818
0.26970279	0.027491409	0.0015100872	0.00022681388
0.26989973	0.0072463769	0.00030898655	0.00022681388
0.27009666	0.014981274	0.00079549698	0.00022681388
0.27029359	0.011450382	0.0005787008	0.00022684968
0.27049056	0.0073260074	0.00031409998	0.00022681388
0.27068749	0	0	0.00022681388
0.27088442	0.0080321282	0.00036065321	0.00022681388
0.27108136	0.0041841003	0	0.00022681388
0.27127829	0	0	0.00022681388
0.27147523	0	0	0.00022681388
0.27167216	0.011363637	0	0.00022681388
0.27186909	0	0	0.00022681388
0.27206603	0	0	0.00022681388
0.27226296	0	0	0.00022681388
