#   DataFileName=PAL30_50C_WAXS_08172017.tif
#   DataFileType=.tif
#   
#   DataFilePath=E:DATA:PAL30_08262017:
#   
#   Processed on=Wed, Jan 16, 2019,2:41:09 AM
#   Units=Arbitrary
#   SampleThickness=1
#   SampleTransmission=1
#   CorrectionFactor=1
#   SampleMeasurementTime=1
#   EmptyMeasurementTime=1
#   BackgroundMeasTime=1
#   SampleI0=1
#   EmptyI0=1
#   Nika_SampleToDetectorDistacne=1552.1
#   Nika_Wavelength=1.54
#   Nika_XrayEnergy=8.0509
#   Nika_PixelSizeX=0.075
#   Nika_PixelSizeY=0.075
#   Nika_HorizontalTilt=0
#   Nika_VerticalTilt=0
#   Nika_BeamCenterX=1540.3
#   Nika_BeamCenterY=830.17
#   Nika_BeamSizeX=0
#   Nika_BeamCenterY=830.17
#   CalibrationFormula=1*((Sa2D))
#   CurrentMaskFileName=PAL30_30C_WAXS_mask.hdf
#   QvectorMaxNumPnts=1
#   QvectorNumberPoints=1383
#   CircularAverage=1
#   PolarizationCorrection=None
#   UncertainityCalculationMethod=OldNikaMethod

0.0060065244	14	9.7979593	0.00022756745
0.00620346	8.4799995	1.684399	0.00022756765
0.0064003952	7.4210525	0.98007566	0.00022756765
0.0065973303	7.5124998	0.8388108	0.00022756765
0.0067942655	10.683674	1.0755498	0.00022756765
0.0069912006	12.28972	1.1756736	0.00022756745
0.0071881362	14.442623	1.2865869	0.00022756727
0.0073850714	16.854961	1.4454073	0.00022756727
0.0075820065	17.089655	1.3994526	0.00022756727
0.0077789417	16.272108	1.3240995	0.00022756745
0.0079758773	14.943038	1.1751357	0.00022756746
0.0081728119	13.668712	1.0588158	0.00022756707
0.0083697475	11.095506	0.82354957	0.00022756671
0.0085666822	10.435233	0.74397004	0.00022756783
0.0087636178	9.3589745	0.66280651	0.00022756783
0.0089605534	8.7535543	0.59709817	0.00022756746
0.0091574881	7.8602619	0.51525837	0.00022756707
0.0093544237	6.7680001	0.42507583	0.00022756671
0.0095513584	6.1140685	0.37459782	0.00022756707
0.009748294	5.4227943	0.32662272	0.00022756707
0.0099452296	5.0144405	0.29946795	0.00022756595
0.010142164	5.0467625	0.30088127	0.00022756707
0.0103391	4.4276094	0.25530037	0.00022756671
0.010536035	4.061017	0.23508224	0.00022756707
0.01073297	3.7697368	0.21520665	0.00022756783
0.010929906	3.6623795	0.20658073	0.00022756746
0.01112684	3.4089458	0.19172537	0.00022756783
0.011323776	3.0271084	0.16513394	0.00022756746
0.011520711	2.9725609	0.16332348	0.00022756707
0.011717646	2.7426035	0.14847912	0.00022756707
0.011914582	2.5175438	0.13534933	0.00022756746
0.012111517	2.3652174	0.1267685	0.00022756783
0.012308452	2.3543956	0.12293565	0.00022756671
0.012505387	2.0875707	0.11042026	0.00022756783
0.012702323	1.9656085	0.10062508	0.00022756783
0.012899258	2.0482574	0.10563625	0.00022756671
0.013096193	1.7565445	0.089512028	0.00022756707
0.013293128	1.7723786	0.08923427	0.00022756671
0.013490063	1.7319587	0.08748851	0.00022756707
0.013686999	1.5612745	0.077014491	0.00022756707
0.013883934	1.5109489	0.074241489	0.00022756671
0.014080869	1.4401914	0.070242561	0.00022756707
0.014277805	1.3717647	0.066296861	0.00022756671
0.014474739	1.3829787	0.06699688	0.0002275663
0.014671675	1.2325057	0.058375616	0.00022756707
0.014868611	1.1159091	0.053005546	0.00022756671
0.015065545	1.1010989	0.051461432	0.0002275663
0.015262481	1.1545064	0.053319685	0.00022756671
0.015459416	1.043956	0.04878081	0.00022756595
0.01565635	1.0277185	0.04735167	0.00022756707
0.015853286	1.0403397	0.047732789	0.00022756554
0.016050221	0.89690721	0.04061731	0.00022756707
0.016247157	0.91497976	0.041022427	0.00022756707
0.016444093	0.82800001	0.036911853	0.00022756483
0.016641026	0.85341364	0.038151443	0.00022756707
0.016837962	0.743487	0.033189736	0.00022756707
0.017034898	0.78793776	0.034658793	0.00022756554
0.017231833	0.7418738	0.032376323	0.00022756554
0.017428769	0.77419353	0.033619892	0.00022756483
0.017625703	0.71962619	0.031042684	0.00022756554
0.017822638	0.68342644	0.029399727	0.00022756554
0.018019574	0.66544116	0.028448522	0.00022756554
0.018216509	0.64963502	0.027692759	0.00022756554
0.018413445	0.5903399	0.024888981	0.00022756483
0.018610379	0.62720847	0.02631106	0.00022756554
0.018807314	0.59162301	0.024648698	0.00022756554
0.01900425	0.56499135	0.02346365	0.00022756554
0.019201186	0.56293708	0.023484452	0.00022756554
0.019398121	0.54438859	0.022223849	0.00022756483
0.019595055	0.52033901	0.021367846	0.00022756554
0.019791991	0.46115702	0.018695263	0.00022756554
0.019988926	0.50413221	0.020441612	0.00022756554
0.020185862	0.44444445	0.017913828	0.00022756554
0.020382797	0.51114649	0.020351421	0.00022756483
0.020579731	0.45792881	0.018371763	0.00022756403
0.020776667	0.45141065	0.017828308	0.00022756403
0.020973602	0.40845069	0.016112335	0.00022756554
0.021170538	0.42343751	0.016697586	0.00022756403
0.021367474	0.40271494	0.015601491	0.0002275633
0.021564407	0.42724457	0.016768323	0.00022756403
0.021761343	0.367713	0.014179675	0.00022756403
0.021958278	0.36349925	0.014079677	0.00022756403
0.022155214	0.37885463	0.014483817	0.00022756403
0.02235215	0.39825583	0.015152049	0.0002275633
0.022549083	0.36710718	0.01402692	0.00022756403
0.022746019	0.33900708	0.012740635	0.00022756403
0.022942955	0.35724533	0.013495297	0.00022756403
0.02313989	0.33380482	0.012520432	0.00022756403
0.023336826	0.31101814	0.011584545	0.0002275633
0.02353376	0.36849508	0.013782757	0.00022756403
0.023730695	0.30122116	0.011069993	0.00022756403
0.023927631	0.30620688	0.011340767	0.0002275625
0.024124566	0.30563003	0.011162467	0.00022756403
0.024321502	0.27613941	0.01008473	0.00022756179
0.024518436	0.29261744	0.010691245	0.0002275625
0.024715371	0.28063241	0.010156003	0.0002275625
0.024912307	0.30383092	0.011014027	0.0002275625
0.025109243	0.28772378	0.010266342	0.0002275625
0.025306178	0.29495472	0.010581905	0.00022756179
0.025503112	0.27713922	0.0098781185	0.0002275625
0.025700048	0.26683608	0.0094863819	0.0002275625
0.025896983	0.26844785	0.0095499502	0.0002275625
0.026093919	0.29679802	0.010391529	0.00022756097
0.026290854	0.25806451	0.0090671536	0.00022756179
0.026487788	0.27560976	0.009599233	0.0002275625
0.026684724	0.26405868	0.0092120692	0.00022756097
0.026881659	0.22655298	0.0078838542	0.0002275625
0.027078595	0.25894988	0.0089213923	0.00022756097
0.027275531	0.24789411	0.0085779261	0.00022756179
0.027472464	0.21071012	0.0071674581	0.00022756097
0.0276694	0.24704492	0.0084694671	0.00022756097
0.027866336	0.22041763	0.0074861748	0.00022756097
0.028063271	0.2488372	0.0084616169	0.00022756097
0.028260207	0.22960372	0.007818521	0.00022756026
0.028457141	0.22222222	0.0074253082	0.00022756097
0.028654076	0.2122588	0.0071317758	0.00022756097
0.028851012	0.23266219	0.007762494	0.00022756097
0.029047947	0.23740202	0.0079232985	0.00022756097
0.029244883	0.23284589	0.0077905115	0.00022756026
0.029441817	0.22004357	0.0072452561	0.00022756097
0.029638752	0.21758242	0.0071922285	0.00022755946
0.029835688	0.18770227	0.0061478717	0.00022756097
0.030032624	0.22043011	0.0072101024	0.00022755946
0.030229559	0.1991342	0.0065326686	0.00022755875
0.030426493	0.18829787	0.0061217789	0.00022755946
0.030623429	0.1970181	0.0064115007	0.00022755946
0.030820364	0.17956656	0.0057520107	0.00022755946
0.0310173	0.23133543	0.0074828374	0.00022755946
0.031214235	0.21058092	0.0067651775	0.00022755946
0.031411171	0.19096509	0.0061030961	0.00022755875
0.031608105	0.19234747	0.0061653797	0.00022755571
0.031805038	0.17795753	0.0056408918	0.00022756017
0.032001976	0.19716886	0.0062527014	0.00022755875
0.03219891	0.21005026	0.0066435258	0.00022756017
0.032395847	0.17682318	0.0055727782	0.00022755875
0.032592781	0.17974181	0.0056483336	0.00022755875
0.032789715	0.19373778	0.0060435198	0.00022756017
0.032986652	0.16551724	0.0051799612	0.00022755571
0.033183586	0.18403116	0.0057272427	0.00022755713
0.033380523	0.1840077	0.0056959647	0.00022755875
0.033577457	0.1734104	0.0053663538	0.00022755571
0.033774391	0.15919924	0.0049002813	0.00022755713
0.033971328	0.16412213	0.0050556841	0.00022755571
0.034168262	0.19583727	0.0060096448	0.00022756017
0.0343652	0.16399623	0.0050204392	0.00022755571
0.034562133	0.17455897	0.0053044828	0.00022755571
0.034759067	0.15306123	0.0046479418	0.00022756017
0.034956004	0.17962962	0.0054517528	0.00022755571
0.035152938	0.17534247	0.0052852659	0.00022755713
0.035349876	0.15510949	0.0046716332	0.00022755571
0.035546809	0.16243194	0.004878371	0.00022755571
0.035743743	0.17753623	0.0053297477	0.00022755713
0.035940681	0.13991031	0.0041763321	0.00022755571
0.036137614	0.17939609	0.0053330683	0.00022755713
0.036334552	0.1687389	0.005015749	0.00022755266
0.036531486	0.17460318	0.0051714806	0.00022755266
0.036728419	0.15255731	0.0045176572	0.00022755713
0.036925357	0.17565218	0.0051666913	0.00022755571
0.037122291	0.18158123	0.0053391322	0.00022755713
0.037319228	0.14818025	0.004350082	0.00022755571
0.037516162	0.17472434	0.0050763222	0.00022755266
0.037713096	0.15252785	0.0044520069	0.00022755713
0.037910033	0.15587734	0.0045365151	0.00022755266
0.038106967	0.17048346	0.0049528326	0.00022755409
0.038303904	0.16371308	0.0047437618	0.00022755266
0.038500838	0.1389351	0.0039947126	0.00022755266
0.038697772	0.14297521	0.0040982547	0.00022755409
0.038894709	0.16639073	0.0047758641	0.00022755266
0.039091643	0.1579818	0.0045317519	0.00022755409
0.03928858	0.16229509	0.0046347445	0.00022755266
0.039485514	0.1380991	0.0039248322	0.00022755266
0.039682448	0.16896832	0.0048043504	0.00022755409
0.039879385	0.14859438	0.0041990122	0.00022755266
0.040076319	0.13600001	0.0038343272	0.00022755409
0.040273257	0.14686999	0.0041493098	0.00022754962
0.04047019	0.15274464	0.0042974111	0.00022754962
0.040667124	0.15170771	0.0042639482	0.00022755409
0.040864062	0.1696638	0.0047326847	0.00022755266
0.041060995	0.13219285	0.0036750527	0.00022755409
0.041257933	0.15444618	0.0043028709	0.00022754962
0.041454867	0.16809338	0.004678444	0.00022755266
0.0416518	0.15175097	0.0042222971	0.00022755409
0.041848738	0.14274809	0.0039332248	0.00022754962
0.042045671	0.13916349	0.0038262811	0.00022754801
0.042242609	0.13231939	0.0036382005	0.00022754657
0.042439543	0.13135915	0.0036099448	0.00022754353
0.042636476	0.13974455	0.003819874	0.00022754801
0.042833414	0.15888554	0.0043495148	0.00022754657
0.043030348	0.13965645	0.0038063286	0.00022754801
0.043227285	0.14771049	0.0040032426	0.00022754353
0.043424219	0.15033162	0.004071346	0.00022754353
0.043621153	0.14117648	0.0038176274	0.00022754801
0.04381809	0.12829912	0.0034639724	0.00022754353
0.044015024	0.14703731	0.0039664591	0.00022754495
0.044211961	0.1442029	0.0038716795	0.00022754353
0.044408895	0.12733813	0.0034063824	0.00022754353
0.044605829	0.11063218	0.0029552921	0.00022754495
0.044802766	0.1348637	0.0036029858	0.00022754353
0.0449997	0.13062099	0.003480396	0.00022754495
0.045196638	0.14558303	0.0038607803	0.00022754353
0.045393571	0.12765957	0.0033907345	0.00022754353
0.045590505	0.12824106	0.0033854856	0.00022754495
0.045787442	0.13464236	0.0035556189	0.00022754048
0.045984376	0.15347221	0.004035261	0.00022754191
0.046181314	0.1554476	0.0040861042	0.00022754353
0.046378247	0.12983425	0.0034023141	0.00022754048
0.046575181	0.14779006	0.0038735382	0.00022754191
0.046772119	0.14873201	0.0038842708	0.00022754353
0.046969052	0.14295439	0.0037208279	0.00022754495
0.04716599	0.1465576	0.0038164938	0.00022754048
0.047362924	0.13207547	0.0034192922	0.00022754048
0.047559857	0.14544237	0.0037562496	0.00022754495
0.047756795	0.14775017	0.0038195464	0.00022754048
0.047953729	0.14084508	0.0036375173	0.00022754495
0.048150666	0.13669541	0.0035114491	0.00022754048
0.0483476	0.14598539	0.003750368	0.00022754048
0.048544534	0.13686968	0.0034924368	0.00022754191
0.048741471	0.14106789	0.0036121516	0.00022753744
0.048938405	0.1504886	0.003831517	0.00022754191
0.049135342	0.15137614	0.0038653249	0.00022754048
0.049332276	0.1529488	0.0038834119	0.00022753744
0.04952921	0.1545925	0.0039222119	0.00022753887
0.049726147	0.12637009	0.0031980004	0.00022753744
0.049923081	0.12729576	0.0031931784	0.00022754191
0.050120018	0.15089513	0.0038053065	0.00022753744
0.050316952	0.13627639	0.0034360348	0.00022753744
0.050513886	0.15238096	0.0038294389	0.00022753887
0.050710823	0.131896	0.0033104878	0.00022753744
0.050907757	0.15021725	0.0037320978	0.00022753887
0.051104695	0.14553404	0.0036257633	0.00022753744
0.051301628	0.13982522	0.0034836568	0.00022753744
0.051498562	0.14294632	0.0035618641	0.00022753887
0.0516955	0.12863328	0.0031884618	0.00022753744
0.051892433	0.12239902	0.0030190393	0.00022753887
0.052089371	0.14135802	0.0035024513	0.0002275344
0.052286305	0.14268367	0.0035058281	0.00022753744
0.052483238	0.14650457	0.0036017098	0.00022753583
0.052680176	0.12644377	0.0031076747	0.0002275344
0.052877109	0.13009119	0.0031966709	0.00022753887
0.053074047	0.14345992	0.003512244	0.0002275344
0.053270981	0.14507462	0.0035350611	0.00022753744
0.053467914	0.14498806	0.0035320777	0.00022753887
0.053664852	0.13431014	0.0033088045	0.0002275344
0.053861786	0.16037151	0.003981106	0.00022753583
0.054058723	0.14196762	0.0035319135	0.0002275344
0.054255657	0.14965986	0.0037110215	0.0002275344
0.054452591	0.14696686	0.0036641667	0.00022753583
0.054649528	0.13038054	0.0032448883	0.0002275344
0.054846462	0.13605015	0.0033956515	0.00022753583
0.055043399	0.12917455	0.0032316388	0.00022753136
0.055240333	0.11876184	0.0029742927	0.0002275344
0.055437267	0.15122874	0.00378502	0.00022753583
0.055634204	0.15394242	0.0038414011	0.00022753136
0.055831138	0.13172895	0.0033039681	0.00022753279
0.056028076	0.15229703	0.0038100202	0.00022753136
0.056225009	0.13084702	0.003278886	0.00022753136
0.056421943	0.14741544	0.0037131167	0.00022753279
0.05661888	0.14142048	0.0035354912	0.00022753136
0.056815814	0.15650535	0.0039135385	0.00022753279
0.057012752	0.16202532	0.0040643932	0.00022753136
0.057209685	0.14141414	0.0035429341	0.00022752832
0.057406619	0.13131313	0.0032887929	0.00022753279
0.057603557	0.15603285	0.0039104884	0.00022753136
0.05780049	0.1556962	0.0039061417	0.00022753279
0.057997428	0.15515076	0.0038778153	0.00022752832
0.058194362	0.15530303	0.0038912874	0.00022752832
0.058391295	0.1743525	0.0043709767	0.00022752974
0.058588233	0.18609023	0.0046467674	0.00022752832
0.058785167	0.18227848	0.0045753145	0.00022752974
0.058982104	0.19044626	0.0047634733	0.00022752832
0.059179038	0.18907036	0.0047284537	0.00022752832
0.059375972	0.17872876	0.0044717598	0.00022752974
0.059572909	0.19235589	0.0048044301	0.00022752528
0.059769843	0.17706364	0.0044339346	0.00022752974
0.05996678	0.20136307	0.0050016548	0.00022752528
0.060163714	0.16698173	0.0041812384	0.00022752528
0.060360648	0.17394015	0.0043332842	0.00022752974
0.060557585	0.17971195	0.0044865864	0.00022752528
0.060754519	0.17921592	0.0044602519	0.0002275267
0.060951456	0.17852685	0.0044497605	0.00022752528
0.06114839	0.16925949	0.0042115129	0.00022752528
0.061345324	0.15006226	0.0037341143	0.0002275267
0.061542261	0.12546584	0.0031161108	0.00022752528
0.061739195	0.14738806	0.0036650961	0.0002275267
0.061936133	0.14135152	0.0035081948	0.00022752528
0.062133066	0.12809406	0.003176006	0.00022752528
0.06233	0.13600001	0.0033628428	0.00022752528
0.062526934	0.12917182	0.0032007454	0.0002275251
0.062723875	0.12220844	0.0030336406	0.00022751919
0.062920809	0.11035758	0.0027302532	0.00022752528
0.063117743	0.1184129	0.0029378214	0.00022751919
0.063314676	0.1119951	0.0027607882	0.00022751919
0.06351161	0.12889431	0.0031759164	0.00022752814
0.063708551	0.11281423	0.0027841935	0.00022751919
0.063905485	0.12422744	0.003077711	0.00022751919
0.064102419	0.12560976	0.0030916715	0.00022751919
0.064299352	0.10838947	0.0026728713	0.00022752528
0.064496286	0.11592434	0.0028540411	0.00022752205
0.064693227	0.10328068	0.0025357716	0.00022751919
0.064890161	0.12060606	0.0029596107	0.00022751919
0.065087095	0.11667684	0.0028747087	0.00022752528
0.065284029	0.11606597	0.0028593538	0.00022752528
0.065480962	0.1216707	0.0029844327	0.00022752205
0.065677904	0.11311673	0.0027656716	0.00022752528
0.065874837	0.11917725	0.0029215298	0.00022751919
0.066071771	0.11438892	0.0027978274	0.00022751919
0.066268705	0.10761789	0.0026365847	0.00022751919
0.066465639	0.11438892	0.0027973589	0.00022752205
0.06666258	0.11137725	0.0027151324	0.00022751919
0.066859514	0.10417929	0.0025544667	0.00022751919
0.067056447	0.094530322	0.0022956096	0.00022751919
0.067253381	0.099222951	0.0024167823	0.00022751919
0.067450315	0.093843393	0.0022851713	0.00022751596
0.067647256	0.10479042	0.0025551752	0.00022751919
0.06784419	0.1031175	0.0025151633	0.00022751919
0.068041123	0.092899412	0.0022506788	0.00022751311
0.068238057	0.11025489	0.0026752001	0.00022751311
0.068434991	0.09922757	0.0024106435	0.00022752205
0.068631932	0.095153667	0.0023042427	0.00022751311
0.068828866	0.10825359	0.0026375689	0.00022751311
0.0690258	0.10403273	0.0025059902	0.00022751311
0.069222733	0.10979929	0.0026597157	0.00022751311
0.069419667	0.096926711	0.002347582	0.00022751596
0.069616608	0.093786635	0.002261898	0.00022751311
0.069813542	0.094539046	0.0022825703	0.00022751311
0.070010476	0.08716137	0.0021067418	0.00022751311
0.07020741	0.088600121	0.0021448289	0.00022751311
0.070404343	0.095320627	0.0022830875	0.00022752205
0.070601285	0.083479278	0.0020083154	0.00022751311
0.070798218	0.096455552	0.0023166167	0.00022751311
0.070995152	0.079178885	0.0019089893	0.00022751311
0.071192086	0.072387621	0.0017413967	0.00022751311
0.071389019	0.084004603	0.0020071613	0.00022751596
0.071585961	0.085266821	0.0020454584	0.00022750701
0.071782894	0.080924854	0.0019367303	0.00022751311
0.071979828	0.082994774	0.0019919341	0.00022751311
0.072176762	0.082997121	0.0019850524	0.00022751311
0.072373696	0.067621775	0.00161097	0.00022751596
0.072570637	0.07478261	0.0017926682	0.00022751311
0.072767571	0.086412735	0.0020524624	0.00022750701
0.072964504	0.074074075	0.0017735177	0.00022750701
0.073161438	0.078364566	0.0018589948	0.00022751311
0.073358372	0.078947365	0.001880473	0.00022750988
0.073555313	0.088133641	0.0021072349	0.00022750701
0.073752247	0.07574901	0.0017934622	0.00022751311
0.073949181	0.095319636	0.0022691269	0.00022750701
0.074146114	0.076400682	0.0018093841	0.00022751311
0.074343048	0.084426694	0.0020087271	0.00022750988
0.074539989	0.077796705	0.0018457408	0.00022750701
0.074736923	0.088876471	0.0020937345	0.00022750701
0.074933857	0.081388734	0.0019332396	0.00022750701
0.07513079	0.069819823	0.0016480309	0.00022750701
0.075327724	0.087274775	0.0020629249	0.0002275038
0.075524665	0.10028169	0.0023722628	0.00022750701
0.075721599	0.074610248	0.0017533614	0.00022750093
0.075918533	0.079391889	0.0018763904	0.00022750701
0.076115467	0.089535534	0.002110502	0.00022750701
0.0763124	0.07146845	0.0016813724	0.00022750988
0.076509342	0.083982199	0.0019735137	0.00022750701
0.076706275	0.085508049	0.0020071839	0.00022750701
0.076903209	0.07399103	0.0017445188	0.00022750701
0.077100143	0.079338841	0.001854882	0.00022750093
0.077297077	0.080931261	0.0018978263	0.0002275038
0.077494018	0.076195776	0.0017896281	0.00022750093
0.077690952	0.079164378	0.001848496	0.00022750093
0.077887885	0.076323122	0.0017942138	0.00022750093
0.078084819	0.067538127	0.0015686159	0.00022750093
0.078281753	0.076499723	0.0017872867	0.0002275038
0.078478694	0.075399011	0.0017615311	0.00022750093
0.078675628	0.081376299	0.0018943286	0.00022750093
0.078872561	0.070011027	0.0016366364	0.00022750093
0.079069495	0.058310628	0.0013539027	0.00022750093
0.079266429	0.071467541	0.0016622695	0.0002275038
0.07946337	0.071428575	0.0016608123	0.00022750093
0.079660304	0.06760411	0.0015651989	0.00022750093
0.079857238	0.07427635	0.001729246	0.00022750093
0.080054171	0.082206599	0.0019047516	0.00022750093
0.080251105	0.082288831	0.0019132695	0.0002275038
0.080448046	0.074393533	0.0017197453	0.00022749485
0.08064498	0.060492504	0.0013930249	0.00022750093
0.080841914	0.059078589	0.00136806	0.00022750093
0.081038848	0.055793993	0.0012859401	0.00022749485
0.081235781	0.073051944	0.00169209	0.00022749772
0.081432723	0.061899681	0.0014230286	0.00022749485
0.081629656	0.076266669	0.0017541319	0.00022749485
0.08182659	0.062131763	0.0014306108	0.00022749485
0.082023524	0.081958488	0.0018836468	0.00022749485
0.082220457	0.066274717	0.0015254004	0.00022749772
0.082417399	0.072533332	0.0016684516	0.00022749485
0.082614332	0.084087282	0.0019332748	0.00022749485
0.082811266	0.090281464	0.0020722039	0.00022749485
0.0830082	0.061052632	0.0013938094	0.00022749485
0.083205134	0.068710357	0.0015727609	0.00022749163
0.083402075	0.080824092	0.0018510298	0.00022749485
0.083599009	0.061202768	0.0014051686	0.00022749485
0.083795942	0.065582372	0.0014952122	0.00022748877
0.083992876	0.080670506	0.0018390206	0.00022749485
0.08418981	0.065445028	0.0014912874	0.00022749772
0.084386751	0.069597073	0.0015849459	0.00022748877
0.084583685	0.064296916	0.0014632752	0.00022749485
0.084780619	0.078084335	0.0017747215	0.00022749485
0.084977552	0.068893529	0.0015668973	0.00022748877
0.085174486	0.067735262	0.0015327564	0.00022749163
0.085371427	0.074882992	0.0017003955	0.00022748877
0.085568361	0.082346886	0.0018614597	0.00022748877
0.085765295	0.066872425	0.0015100696	0.00022748877
0.085962228	0.059436914	0.0013502899	0.00022748877
0.086159162	0.061277036	0.0013835285	0.00022748555
0.086356103	0.071865447	0.0016157026	0.00022748877
0.086553037	0.056468174	0.0012726312	0.00022748877
0.086749971	0.070594214	0.0015845897	0.00022748877
0.086946905	0.066872425	0.0015104302	0.00022748268
0.087143838	0.078560568	0.001761827	0.00022749163
0.08734078	0.072412036	0.0016286302	0.00022748877
0.087537713	0.075987846	0.0017037934	0.00022748268
0.087734647	0.055639859	0.0012448317	0.00022748877
0.087931581	0.0625	0.0014023539	0.00022748877
0.088128515	0.066800602	0.001490625	0.00022748555
0.088325456	0.057401814	0.001281924	0.00022748268
0.08852239	0.06329114	0.001417989	0.00022748268
0.088719323	0.072391413	0.0016113196	0.00022748268
0.088916257	0.065130264	0.0014513484	0.00022748268
0.089113191	0.066433564	0.0014786075	0.00022748555
0.089310132	0.069430567	0.001545243	0.00022748268
0.089507066	0.070717134	0.0015720907	0.00022748268
0.089703999	0.056547619	0.0012533142	0.00022748268
0.089900933	0.070500001	0.0015702652	0.00022748268
0.090097867	0.060009837	0.0013247975	0.00022747947
0.090294808	0.065304086	0.0014524182	0.00022748268
0.090491742	0.05870745	0.001298056	0.00022748268
0.090688676	0.062778056	0.0013896388	0.00022748268
0.090885609	0.060217176	0.0013319415	0.0002274766
0.091082543	0.052191038	0.0011517548	0.00022748268
0.091279477	0.06886375	0.0015211062	0.00022748555
0.091476418	0.063453026	0.0014011505	0.0002274766
0.091673352	0.073242188	0.0016119847	0.00022748268
0.091870286	0.075601377	0.0016689028	0.0002274766
0.092067219	0.068070516	0.0015005248	0.0002274766
0.092264153	0.07010711	0.001540545	0.00022747947
0.092461094	0.063902438	0.0014055711	0.0002274766
0.092658028	0.075794622	0.0016696608	0.0002274766
0.092854962	0.064344458	0.0014092411	0.0002274766
0.093051895	0.065248914	0.0014284702	0.0002274766
0.093248829	0.060223408	0.0013213806	0.00022747337
0.09344577	0.06766554	0.001481954	0.0002274766
0.093642704	0.062682219	0.0013759432	0.00022747052
0.093839638	0.060270011	0.0013176653	0.0002274766
0.094036572	0.070226073	0.0015341036	0.0002274766
0.094233505	0.058766861	0.0012840184	0.00022747947
0.094430447	0.057950191	0.0012622122	0.00022747052
0.09462738	0.061835747	0.0013529505	0.00022747052
0.094824314	0.05212817	0.0011340409	0.00022747052
0.095021248	0.058879849	0.0012822752	0.00022747052
0.095218182	0.06235126	0.0013544576	0.00022747337
0.095415123	0.067367412	0.0014663889	0.00022747052
0.095612057	0.062887087	0.0013670402	0.00022747052
0.09580899	0.065620542	0.0014251	0.00022747052
0.096005924	0.062679425	0.0013651664	0.00022747052
0.096202858	0.060218114	0.0013058257	0.00022747337
0.096399799	0.059101656	0.0012797785	0.00022747052
0.096596733	0.071025401	0.0015349009	0.00022746444
0.096793666	0.068998113	0.0014941068	0.00022747052
0.0969906	0.056238186	0.0012169287	0.00022746444
0.097187534	0.057021677	0.0012318235	0.00022747337
0.097384475	0.062352385	0.0013498738	0.00022746444
0.097581409	0.058740601	0.0012679035	0.00022747052
0.097778343	0.048394602	0.0010384792	0.00022746444
0.097975276	0.054117646	0.0011679764	0.00022746444
0.09817221	0.057835821	0.001243001	0.00022746729
0.098369151	0.059877418	0.0012937854	0.00022746444
0.098566085	0.056507643	0.0012105156	0.00022746444
0.098763019	0.059953161	0.0012919462	0.00022746444
0.098959953	0.054579094	0.0011682507	0.00022746444
0.099156886	0.05635104	0.0012057314	0.00022746121
0.099353828	0.06162465	0.0013258464	0.00022746444
0.099550761	0.051579926	0.0011056699	0.00022745834
0.099747695	0.06131858	0.0013106981	0.00022745834
0.099944629	0.06105458	0.0013074887	0.00022745834
0.10014156	0.055632185	0.0011872306	0.00022746121
0.1003385	0.045223814	0.00096541946	0.00022745834
0.10053544	0.055963304	0.0011930637	0.00022746444
0.10073237	0.061802976	0.0013269432	0.00022745834
0.1009293	0.055453714	0.0011815212	0.00022746444
0.10112624	0.050000001	0.0010601482	0.00022746121
0.10132318	0.061121322	0.0013042287	0.00022746444
0.10152011	0.059972741	0.0012728127	0.00022745834
0.10171705	0.064929128	0.0013828529	0.00022745834
0.10191398	0.061987236	0.0013175828	0.00022745834
0.10211091	0.052992232	0.0011268141	0.00022746121
0.10230786	0.062301047	0.0013228707	0.00022745834
0.10250479	0.067811936	0.0014361168	0.00022745226
0.10270172	0.059009008	0.0012469353	0.00022745226
0.10289866	0.055125285	0.0011710387	0.00022745226
0.10309559	0.056407943	0.0011922744	0.00022745512
0.10329253	0.052583862	0.0011139793	0.00022745226
0.10348947	0.077130042	0.0016275446	0.00022745834
0.1036864	0.06171171	0.0013041419	0.00022745226
0.10388333	0.066846117	0.0014105239	0.00022745226
0.10408027	0.053531263	0.0011295555	0.00022746121
0.10427721	0.072197311	0.0015232061	0.00022745226
0.10447414	0.068640649	0.0014485659	0.00022745226
0.10467108	0.067290552	0.0014154834	0.00022745226
0.10486801	0.060795709	0.001280189	0.00022745226
0.10506494	0.066075385	0.0013858182	0.00022745512
0.10526188	0.066815145	0.0014048786	0.00022745226
0.10545882	0.073410921	0.0015468615	0.00022744617
0.10565575	0.082410276	0.00172892	0.00022745226
0.10585269	0.0857016	0.0018005426	0.00022745226
0.10604962	0.088339224	0.0018515576	0.00022745512
0.10624656	0.099557519	0.0020892653	0.00022744617
0.10644349	0.099735215	0.0020900005	0.00022744617
0.10664043	0.097754292	0.0020463236	0.00022745226
0.10683736	0.096859798	0.00203208	0.00022744617
0.1070343	0.10475352	0.0021926465	0.00022744904
0.10723124	0.097944908	0.002042895	0.00022744617
0.10742817	0.10484581	0.0021953895	0.00022744617
0.1076251	0.10585684	0.002199936	0.00022744617
0.10782204	0.10593407	0.0022160127	0.00022744617
0.10801897	0.10362921	0.0021616484	0.00022744904
0.10821591	0.12428884	0.0025950142	0.00022744617
0.10841285	0.10897995	0.0022698753	0.00022744617
0.10860978	0.10514928	0.0021821801	0.00022744009
0.10880671	0.083845481	0.0017514866	0.00022744009
0.10900365	0.088908069	0.0018421278	0.00022744904
0.10920059	0.096411586	0.0019996662	0.00022744009
0.10939752	0.087201737	0.0018112311	0.00022744009
0.10959446	0.094600432	0.0019610564	0.00022744009
0.10979139	0.10034753	0.0020861845	0.00022744009
0.10998832	0.095156454	0.0019654445	0.00022744296
0.11018527	0.10004313	0.0020727098	0.00022744009
0.1103822	0.1068505	0.0022128373	0.00022744009
0.11057913	0.10386266	0.0021470834	0.00022743401
0.11077607	0.11790017	0.00244061	0.00022744009
0.110973	0.1213799	0.002499871	0.00022743687
0.11116994	0.12141941	0.002505719	0.00022743401
0.11136688	0.12805139	0.0026451505	0.00022743401
0.11156381	0.12207571	0.0025129502	0.00022743401
0.11176074	0.14529915	0.0029988955	0.00022743401
0.11195768	0.16497031	0.0033925932	0.00022744296
0.11215462	0.17186832	0.0035488245	0.00022743401
0.11235155	0.20797962	0.0042797155	0.00022743401
0.11254849	0.23807514	0.0048862733	0.00022743401
0.11274542	0.2485182	0.0051086047	0.00022743401
0.11294235	0.24946967	0.0051336302	0.00022743687
0.11313929	0.25730005	0.0052882046	0.00022743401
0.11333623	0.28997064	0.0059354529	0.00022743401
0.11353316	0.2693446	0.0055337977	0.00022742792
0.1137301	0.28403363	0.0058172252	0.00022743401
0.11392703	0.29497907	0.0060290983	0.00022743079
0.11412397	0.32465351	0.0066487482	0.00022742792
0.1143209	0.30895334	0.0063295639	0.00022742792
0.11451784	0.31561324	0.006452457	0.00022742792
0.11471477	0.34997901	0.0071647731	0.00022742792
0.11491171	0.36743993	0.0074739843	0.00022743079
0.11510865	0.41903171	0.0085558211	0.00022742792
0.11530558	0.42381349	0.0086425925	0.00022742792
0.11550251	0.50522792	0.010327277	0.00022742792
0.11569945	0.58806467	0.011966424	0.00022742792
0.11589638	0.68762928	0.013981463	0.00022743079
0.11609332	0.88590324	0.018006857	0.00022742792
0.11629026	1.0678807	0.021719947	0.00022742792
0.11648719	1.5345184	0.031193078	0.00022742184
0.11668412	2.1684558	0.044053335	0.00022742184
0.11688106	3.1085336	0.063257501	0.00022742471
0.117078	4.5411186	0.092068665	0.00022742184
0.11727493	6.2554235	0.12654085	0.00022742184
0.11747187	8.6262789	0.17450319	0.00022742184
0.1176688	11.302583	0.2288316	0.00022742184
0.11786573	13.94967	0.28329915	0.00022742471
0.11806267	16.466312	0.33270273	0.00022742184
0.11825961	18.49242	0.37425652	0.00022742184
0.11845654	19.914436	0.40099311	0.00022742184
0.11865348	20.063086	0.40473002	0.00022742184
0.11885041	19.683737	0.39838183	0.00022741863
0.11904735	18.751822	0.37729034	0.00022741576
0.11924428	16.873474	0.34032679	0.00022741576
0.11944122	15.456716	0.31086865	0.00022741576
0.11963815	13.899675	0.28011826	0.00022741576
0.11983509	12.091603	0.24235176	0.00022741863
0.12003203	10.739096	0.2158031	0.00022741576
0.12022896	9.2299881	0.18603659	0.00022741576
0.12042589	7.7028341	0.15496781	0.00022741576
0.12062283	6.555912	0.13122767	0.00022741576
0.12081976	5.2703571	0.10553373	0.00022741863
0.1210167	4.2336001	0.084652476	0.00022741576
0.12121364	3.2261713	0.064818487	0.00022740968
0.12141057	2.461477	0.049166981	0.00022740968
0.1216075	1.8953068	0.03794856	0.00022741576
0.12180444	1.3734076	0.027394608	0.00022741254
0.12200138	1.0629733	0.021215215	0.00022740968
0.12219831	0.81829071	0.016347235	0.00022741576
0.12239525	0.68316829	0.013590715	0.00022741576
0.12259218	0.54814225	0.010951701	0.00022740968
0.12278911	0.5009948	0.0099892709	0.00022741254
0.12298606	0.42454329	0.0084560132	0.00022740968
0.12318299	0.40182105	0.00799054	0.00022740968
0.12337992	0.35582581	0.0070436154	0.00022740968
0.12357686	0.29393098	0.0058498094	0.00022740968
0.12377379	0.26155668	0.005194447	0.00022740646
0.12397073	0.25305963	0.0050239218	0.00022740968
0.12416767	0.22702278	0.0044948249	0.00022740359
0.1243646	0.20376176	0.0040292321	0.00022740359
0.12456153	0.1884858	0.003738421	0.00022740359
0.12475847	0.18495297	0.0036570283	0.00022740646
0.12495541	0.16686344	0.0033058368	0.00022739463
0.12515233	0.1477717	0.0029175177	0.00022740323
0.12534928	0.15336707	0.0030215601	0.00022739751
0.12554622	0.14313649	0.0028266271	0.00022739751
0.12574315	0.13058686	0.0025700361	0.00022739751
0.12594008	0.1277843	0.002521591	0.00022739751
0.12613702	0.11970463	0.0023556126	0.00022740968
0.12633395	0.12787524	0.0025204972	0.00022740968
0.12653089	0.10844307	0.0021300055	0.00022739751
0.12672782	0.10007728	0.0019631828	0.00022739751
0.12692475	0.10903427	0.0021476422	0.00022739751
0.12712169	0.10068913	0.001965449	0.00022740323
0.12731864	0.090202175	0.0017744253	0.00022739751
0.12751557	0.088880338	0.0017392585	0.00022739751
0.1277125	0.087692305	0.0017156124	0.00022739751
0.12790944	0.098493628	0.0019314863	0.00022739751
0.12810637	0.092656672	0.001812777	0.00022739751
0.1283033	0.084706783	0.001654215	0.00022739751
0.12850024	0.080490611	0.0015716898	0.00022739751
0.12869717	0.086424477	0.0016861039	0.00022738535
0.12889411	0.080291972	0.0015697016	0.00022739751
0.12909104	0.080639027	0.0015688436	0.00022740323
0.12928799	0.069785275	0.0013624652	0.00022739751
0.12948492	0.070102312	0.0013605877	0.00022739751
0.12968186	0.078333974	0.0015273353	0.00022738535
0.12987879	0.066641279	0.0012963013	0.00022738535
0.13007572	0.06961786	0.0013500151	0.00022738535
0.13027266	0.055175036	0.0010724696	0.00022738535
0.13046959	0.059712775	0.0011569125	0.00022738535
0.13066652	0.061433446	0.0011924889	0.00022738535
0.13086346	0.055576559	0.001076855	0.00022739751
0.13106039	0.064141035	0.0012384095	0.00022740323
0.13125734	0.061216731	0.0011897432	0.00022738535
0.13145427	0.065740041	0.0012702163	0.00022738535
0.13165121	0.059510358	0.0011510343	0.00022738535
0.13184814	0.055826154	0.0010763839	0.00022738535
0.13204508	0.072393097	0.001397743	0.00022738535
0.13224201	0.073262841	0.0014194039	0.00022738535
0.13243894	0.06689088	0.0012888492	0.00022738535
0.13263588	0.059985097	0.001154015	0.00022738535
0.13283281	0.056843679	0.0010953681	0.00022738535
0.13302974	0.058757484	0.0011327285	0.00022739106
0.13322669	0.061194029	0.0011780589	0.00022738535
0.13342363	0.056708675	0.0010877828	0.00022738535
0.13362056	0.066097289	0.0012698239	0.00022738535
0.13381749	0.059634738	0.0011471895	0.00022737318
0.13401443	0.047991071	0.00092177774	0.00022737318
0.13421136	0.049350649	0.00094695966	0.00022738535
0.1344083	0.051584378	0.00098630995	0.00022737318
0.13460523	0.054323725	0.0010405956	0.00022737318
0.13480216	0.043494422	0.00083492254	0.00022737318
0.1349991	0.055185184	0.0010581854	0.0002273789
0.13519605	0.050711419	0.00096499873	0.00022737318
0.13539298	0.04998149	0.00095790107	0.00022737318
0.13558991	0.050915752	0.00097078708	0.00022737318
0.13578685	0.054391768	0.0010390029	0.00022737318
0.13598378	0.047235444	0.00090014527	0.00022737318
0.13618071	0.045287188	0.0008652549	0.00022737318
0.13637765	0.049798608	0.0009487042	0.00022737318
0.13657458	0.062111802	0.0011832948	0.00022737318
0.13677152	0.048104957	0.00091432134	0.00022737318
0.13696845	0.050872091	0.00096599915	0.00022737318
0.13716538	0.054764513	0.0010427363	0.0002273789
0.13736233	0.051591657	0.00098314486	0.00022737318
0.13755926	0.05382948	0.00101952	0.00022737318
0.1377562	0.052804079	0.0010038884	0.00022737318
0.13795313	0.048258346	0.00091527362	0.00022736102
0.13815007	0.049115203	0.00092994946	0.00022736102
0.138347	0.046047863	0.00087314105	0.00022737318
0.13854393	0.049280576	0.00093080947	0.00022737318
0.13874087	0.045818184	0.00087001576	0.00022736102
0.1389378	0.046570398	0.00088125328	0.00022736102
0.13913473	0.051952705	0.0009797517	0.00022736673
0.13933168	0.056793675	0.0010730267	0.00022737318
0.13952862	0.050987434	0.00096263963	0.00022737318
0.13972555	0.057412792	0.0010905345	0.00022736102
0.13992248	0.050962225	0.00095815782	0.00022736102
0.14011942	0.049838651	0.00093984773	0.00022736102
0.14031635	0.045422032	0.00085534604	0.00022737318
0.14051329	0.048162684	0.00090623752	0.00022736102
0.14071022	0.05202727	0.00098162657	0.00022736102
0.14090715	0.051381998	0.00096337299	0.00022736102
0.14110409	0.050696179	0.00095421134	0.00022736673
0.14130104	0.047533952	0.00089489343	0.00022736102
0.14149797	0.043231752	0.00081022945	0.00022736102
0.1416949	0.049308266	0.000925028	0.00022734885
0.14189184	0.048056535	0.00089959987	0.00022736102
0.14208877	0.035714287	0.00067146978	0.00022736102
0.1422857	0.043956045	0.00082401728	0.00022736102
0.14248264	0.034398034	0.00064092607	0.00022736102
0.14267957	0.04609929	0.00086428883	0.00022736102
0.14287651	0.045342706	0.00084647845	0.00022736102
0.14307344	0.041401275	0.00077509036	0.00022735457
0.14327039	0.051651441	0.00096435077	0.00022736102
0.14346732	0.044334974	0.00082810892	0.00022734885
0.14366426	0.054054055	0.001009201	0.00022734885
0.14386119	0.058617059	0.0010944974	0.00022736102
0.14405812	0.04168126	0.00077670778	0.00022734885
0.14425506	0.047436345	0.0008825282	0.00022734885
0.14445199	0.057523675	0.0010739458	0.00022734885
0.14464892	0.052650053	0.00098292599	0.00022734885
0.14484586	0.040667363	0.00075473683	0.00022734885
0.14504279	0.047768481	0.00088858063	0.00022735457
0.14523974	0.046302695	0.00085720763	0.00022734885
0.14543667	0.042090494	0.00078458519	0.00022733668
0.14563361	0.041652203	0.0007722525	0.00022734885
0.14583054	0.043448035	0.00080582802	0.00022734885
0.14602748	0.045658942	0.00084532431	0.00022734885
0.14622441	0.050536517	0.00093662983	0.00022733668
0.14642134	0.045266069	0.00083802309	0.00022734885
0.14661828	0.048209365	0.00089128659	0.00022733668
0.14681521	0.050606586	0.00093862304	0.00022733668
0.14701214	0.048637461	0.00089995778	0.0002273424
0.14720909	0.038925249	0.00071908603	0.00022733668
0.14740603	0.050672181	0.0009371409	0.00022733668
0.14760296	0.047002725	0.00086408382	0.00022733668
0.14779989	0.040303133	0.00074472878	0.00022733668
0.14799683	0.046848089	0.00086583052	0.00022733668
0.14819376	0.039148353	0.00072217808	0.00022733668
0.1483907	0.043478262	0.00080107671	0.00022733668
0.14858763	0.041865215	0.0007691533	0.00022733668
0.14878456	0.047062866	0.00086886936	0.00022733668
0.1489815	0.038983051	0.00071429356	0.0002273424
0.14917845	0.048040885	0.0008835831	0.00022733668
0.14937538	0.045020465	0.00082794111	0.00022733668
0.14957231	0.043007113	0.00078779354	0.00022733668
0.14976925	0.046232875	0.00085203053	0.00022733668
0.14996618	0.053926524	0.00098681543	0.00022733668
0.15016311	0.048135594	0.00088305108	0.00022732452
0.15036005	0.049302958	0.00090588222	0.00022732452
0.15055698	0.039083559	0.00071404775	0.00022733668
0.15075392	0.046227057	0.00084894686	0.00022733668
0.15095085	0.047299564	0.00086272665	0.00022733024
0.1511478	0.045469854	0.00083116064	0.00022732452
0.15134473	0.043287117	0.00079242053	0.00022733668
0.15154167	0.046964105	0.00085688534	0.00022732452
0.1517386	0.037187289	0.00068046304	0.00022732452
0.15193553	0.04722036	0.00086082227	0.00022732452
0.15213247	0.042016808	0.00076707918	0.00022733668
0.1523294	0.044585988	0.00081326393	0.00022732452
0.15252633	0.04131956	0.00075124193	0.00022732452
0.15272327	0.038474407	0.00070041127	0.00022732452
0.1529202	0.036036037	0.00065491191	0.00022733024
0.15311715	0.039906103	0.00072751206	0.00022732452
0.15331408	0.031904288	0.00057842326	0.00022732452
0.15351102	0.041555852	0.00075444061	0.00022732452
0.15370795	0.045257904	0.00082243182	0.00022731235
0.15390489	0.04093178	0.00074332271	0.00022732452
0.15410182	0.043665234	0.00079101819	0.00022732452
0.15429875	0.043521594	0.00078990444	0.00022732452
0.15449569	0.055112883	0.0010009106	0.00022731235
0.15469262	0.047650561	0.00086355407	0.00022731235
0.15488955	0.053030305	0.00095937995	0.00022731809
0.1550865	0.044466402	0.00080366293	0.00022732452
0.15528344	0.040755466	0.00073842605	0.00022731235
0.15548037	0.04339185	0.00078665186	0.00022731235
0.1556773	0.036393441	0.00065557641	0.00022731235
0.15587424	0.042504117	0.00076814607	0.00022731235
0.15607117	0.039164491	0.00070454797	0.00022731235
0.1562681	0.039564788	0.00071512774	0.00022731235
0.15646504	0.03975033	0.0007172132	0.00022732452
0.15666197	0.035971224	0.00064735604	0.00022731235
0.15685891	0.035959464	0.00064676849	0.00022731809
0.15705585	0.035236541	0.00063329097	0.00022731235
0.15725279	0.037000656	0.00066604512	0.00022731235
0.15744972	0.036410924	0.00065341161	0.00022731235
0.15764666	0.038085938	0.00068386854	0.00022731235
0.15784359	0.035081968	0.00063180493	0.00022731235
0.15804052	0.039234761	0.000703061	0.00022731235
0.15823746	0.043336593	0.00077860593	0.00022731235
0.15843439	0.038312942	0.0006839885	0.00022731235
0.15863132	0.04085603	0.00073205249	0.00022730019
0.15882826	0.040390879	0.00072557887	0.00022731809
0.15902521	0.04266322	0.00076363457	0.00022730019
0.15922214	0.03628118	0.0006495032	0.00022730019
0.15941907	0.042976268	0.00076628849	0.00022731235
0.15961601	0.037876334	0.00067813019	0.00022730019
0.15981294	0.041532516	0.00074177585	0.00022730019
0.16000988	0.044752091	0.00079939491	0.00022730019
0.16020681	0.03510467	0.00062639546	0.00022730019
0.16040374	0.04135941	0.00073714263	0.00022730019
0.16060068	0.039651837	0.00070834887	0.00022730019
0.16079761	0.03508772	0.00062328612	0.00022730592
0.16099456	0.035725679	0.00063469325	0.00022730019
0.16119149	0.039909881	0.0007124212	0.00022730019
0.16138843	0.042212985	0.00075144641	0.00022730019
0.16158536	0.037487984	0.00066767714	0.00022730019
0.16178229	0.035589449	0.00063121854	0.00022728802
0.16197923	0.035417996	0.00062903255	0.00022728802
0.16217616	0.03464717	0.00061460724	0.00022728802
0.1623731	0.027698185	0.00049098633	0.00022728802
0.16257003	0.037131071	0.00065806654	0.00022728802
0.16276696	0.037484117	0.00066472427	0.00022730592
0.16296391	0.036531132	0.0006476703	0.00022728802
0.16316085	0.037329961	0.00066062738	0.00022730019
0.16335778	0.043024361	0.00076200982	0.00022728802
0.16355471	0.04160101	0.00073516311	0.00022728802
0.16375165	0.041962557	0.00075014296	0.00022728802
0.16394858	0.047416613	0.00085369189	0.00022728802
0.16414551	0.041462619	0.00074564148	0.00022728802
0.16434245	0.033377394	0.00060313212	0.00022728802
0.16453938	0.040890958	0.00074176508	0.00022728802
0.16473632	0.04109589	0.0007476483	0.00022729376
0.16493326	0.040768195	0.00074452884	0.00022728802
0.1651302	0.046293192	0.00084445573	0.00022727586
0.16532713	0.048905607	0.00090060651	0.00022728802
0.16552407	0.044008125	0.00080604898	0.00022727586
0.165721	0.039322034	0.00072037743	0.00022728802
0.16591793	0.038105045	0.00070242723	0.00022727586
0.16611487	0.037024342	0.00068221806	0.00022727586
0.1663118	0.031597223	0.00058542262	0.00022728802
0.16650873	0.033001032	0.00060844072	0.00022728802
0.16670567	0.041681021	0.00077010185	0.00022728159
0.16690262	0.046543937	0.00086343102	0.00022727586
0.16709955	0.031696275	0.00058781839	0.00022727586
0.16729648	0.038974717	0.00072643522	0.00022727586
0.16749342	0.041782729	0.0007757225	0.00022727586
0.16769035	0.038474992	0.00071563723	0.00022727586
0.16788729	0.037076272	0.00069261302	0.00022727586
0.16808422	0.050417244	0.00093618548	0.00022727586
0.16828115	0.040028337	0.00074921956	0.00022727586
0.16847809	0.044257112	0.00082550815	0.00022726369
0.16867502	0.037965614	0.00071479077	0.00022728159
0.16887197	0.032990422	0.00061768218	0.00022727586
0.1690689	0.034251414	0.00063965336	0.00022726369
0.16926584	0.04299929	0.00080665003	0.00022727586
0.16946277	0.042378917	0.00079561095	0.00022727586
0.1696597	0.03631787	0.00068484619	0.00022726369
0.16985664	0.044531528	0.0008368108	0.00022726369
0.17005357	0.035727046	0.00067155802	0.00022727586
0.17025051	0.039166369	0.0007385232	0.00022726369
0.17044744	0.034420941	0.00064770621	0.00022726369
0.17064437	0.036036037	0.00068049639	0.00022726943
0.17084132	0.043556515	0.00082243938	0.00022727586
0.17103826	0.037158471	0.00070518715	0.00022726369
0.17123519	0.040897574	0.00077388168	0.00022726369
0.17143212	0.034929782	0.00065903604	0.00022726369
0.17162906	0.036554471	0.00069120724	0.00022726369
0.17182599	0.039696861	0.00075018895	0.00022726369
0.17202292	0.034241531	0.00065292511	0.00022726369
0.17221986	0.035934664	0.00068064994	0.00022726369
0.17241679	0.035362743	0.00067118433	0.00022726369
0.17261373	0.041924901	0.00079617975	0.00022725726
0.17281067	0.042955954	0.00081483321	0.00022726369
0.17300761	0.037050623	0.00070539926	0.00022726369
0.17320454	0.036443148	0.00069178216	0.00022725153
0.17340147	0.034342688	0.00065589772	0.00022725153
0.17359841	0.030962035	0.00059023197	0.00022725153
0.17379534	0.03819317	0.00072777504	0.00022726369
0.17399228	0.038870554	0.00074043532	0.00022726369
0.17418921	0.039589442	0.00075381598	0.00022725153
0.17438614	0.031633791	0.00060626591	0.00022725153
0.17458308	0.037979349	0.00072511862	0.00022725726
0.17478003	0.043317288	0.0008292147	0.00022725153
0.17497696	0.040665433	0.0007776203	0.00022725153
0.17517389	0.043350477	0.00082710612	0.00022725153
0.17537083	0.042337954	0.00081532157	0.00022723936
0.17556776	0.041728213	0.00079802249	0.00022723936
0.17576469	0.036885247	0.00070798525	0.00022723936
0.17596163	0.046711508	0.00089912821	0.00022725153
0.17615856	0.040816326	0.0007822144	0.00022725153
0.1763555	0.042798661	0.00082126481	0.00022725153
0.17655243	0.037119526	0.00071134843	0.00022724509
0.17674938	0.025544703	0.00049132702	0.00022723936
0.17694631	0.031871017	0.00061292714	0.00022723936
0.17714325	0.036288813	0.00069749955	0.00022725153
0.17734018	0.040180247	0.00077430072	0.00022723936
0.17753711	0.048345111	0.00092832913	0.00022723936
0.17773405	0.047332831	0.00091351708	0.00022723936
0.17793098	0.046037737	0.00089002657	0.00022723936
0.17812791	0.043527205	0.00083923887	0.00022723936
0.17832485	0.035727717	0.00068863924	0.00022723936
0.17852178	0.041776441	0.00080636539	0.00022724509
0.17871873	0.042280104	0.0008171653	0.00022723936
0.17891566	0.044394281	0.00085709983	0.00022723936
0.1791126	0.044578768	0.00086232362	0.00022722721
0.17930953	0.035107587	0.00067793491	0.00022723936
0.17950647	0.036391206	0.00070465571	0.00022723936
0.1797034	0.0415879	0.00080456887	0.00022723936
0.17990033	0.038853262	0.00075014977	0.00022723936
0.18009727	0.036501899	0.00070764066	0.00022722721
0.1802942	0.037107155	0.00071789796	0.00022722721
0.18049113	0.037887484	0.00073665951	0.00022723294
0.18068808	0.036377415	0.00070386863	0.00022722721
0.18088502	0.036377415	0.00070433249	0.00022722721
0.18108195	0.038490854	0.00074715441	0.00022722721
0.18127888	0.037248194	0.00072207145	0.00022722721
0.18147582	0.033969466	0.00065910787	0.00022722721
0.18167275	0.043626707	0.00084560452	0.00022722721
0.18186969	0.039846744	0.00077591534	0.00022722721
0.18206662	0.03911043	0.00076170597	0.00022722721
0.18226355	0.047312643	0.00091666088	0.00022721505
0.18246049	0.043728422	0.00085230207	0.00022723294
0.18265744	0.037418861	0.0007268106	0.00022721505
0.18285437	0.049961567	0.00097493199	0.00022722721
0.1830513	0.041939206	0.00081819366	0.00022722721
0.18324824	0.039999999	0.00077657192	0.00022721505
0.18344517	0.041506533	0.00080930552	0.00022721505
0.1836421	0.041794479	0.00081416935	0.00022721505
0.18383904	0.042307694	0.00082506676	0.00022721505
0.18403597	0.044196773	0.00086210307	0.00022721505
0.18423291	0.043093499	0.0008412014	0.00022721505
0.18442984	0.037969779	0.00074315775	0.00022722078
0.18462679	0.042561349	0.00082926819	0.00022721505
0.18482372	0.039336674	0.00076742918	0.00022721505
0.18502066	0.039584935	0.00077129452	0.00022721505
0.18521759	0.027068833	0.00052792788	0.00022721505
0.18541452	0.034469403	0.0006739723	0.00022721505
0.18561146	0.028152719	0.00054875301	0.00022721505
0.18580839	0.026985351	0.00052548724	0.00022721505
0.18600532	0.038714673	0.0007576205	0.00022720288
0.18620226	0.041133102	0.00080631376	0.00022721505
0.18639919	0.048799381	0.00095612381	0.00022722078
0.18659614	0.04496124	0.00088099192	0.00022720288
0.18679307	0.045631826	0.00089689461	0.00022720288
0.18699001	0.045226131	0.00088508939	0.00022720288
0.18718694	0.054842472	0.0010773102	0.00022720288
0.18738388	0.03763441	0.00073356403	0.00022720288
0.18758081	0.035307962	0.00069505814	0.00022721505
0.18777774	0.036921881	0.00072378101	0.00022720288
0.18797468	0.040109035	0.00078734051	0.00022720288
0.18817161	0.039750583	0.00078025844	0.00022719071
0.18836854	0.041408669	0.00081037037	0.00022720861
0.18856549	0.04130606	0.00081514433	0.00022719071
0.18876243	0.033476062	0.00065584638	0.00022720288
0.18895936	0.038986355	0.00076530071	0.00022720288
0.18915629	0.043376319	0.00085313333	0.00022719071
0.18935323	0.034361579	0.00067455461	0.00022719071
0.18955016	0.041192625	0.00081156514	0.00022720288
0.1897471	0.036533229	0.00071594905	0.00022719071
0.18994403	0.038341157	0.00075424783	0.00022720288
0.19014096	0.04253643	0.00083983579	0.00022719071
0.1903379	0.045153756	0.00088672363	0.00022719646
0.19053484	0.033871602	0.00066814676	0.00022719071
0.19073178	0.044392522	0.00087186164	0.00022719071
0.19092871	0.043666404	0.00086170691	0.00022719071
0.19112565	0.039525691	0.00078131736	0.00022719071
0.19132258	0.040140297	0.00078826124	0.00022719071
0.19151951	0.041354865	0.00081643998	0.00022719071
0.19171645	0.053809896	0.0010617709	0.00022719071
0.19191338	0.032296181	0.00063676503	0.00022717856
0.19211031	0.039999999	0.00078792084	0.00022719071
0.19230725	0.033372596	0.00065730856	0.00022719646
0.1925042	0.044065107	0.00087353727	0.00022719071
0.19270113	0.038552321	0.00076032802	0.00022719071
0.19289806	0.036234736	0.00071481662	0.00022719071
0.193095	0.034469251	0.00067799422	0.00022717856
0.19329193	0.032155618	0.00063644844	0.00022719071
0.19348887	0.035996836	0.00071187399	0.00022717856
0.1936858	0.033031851	0.00065059104	0.00022717856
0.19388273	0.038279399	0.00075575954	0.00022717856
0.19407967	0.035996836	0.00071152597	0.00022717856
0.1942766	0.035870865	0.00071174803	0.0002271843
0.19447355	0.050860722	0.001001432	0.00022717856
0.19467048	0.040824417	0.00080850133	0.00022717856
0.19486742	0.033623416	0.00066464057	0.0002271664
0.19506435	0.035756852	0.00070747075	0.0002271664
0.19526128	0.043079376	0.00085559802	0.0002271664
0.19545822	0.037994515	0.0007474983	0.0002271664
0.19565515	0.038045656	0.00075648533	0.0002271664
0.19585209	0.03809524	0.00075423397	0.0002271664
0.19604902	0.026920032	0.00053130777	0.0002271664
0.19624595	0.035856575	0.00071150053	0.00022717213
0.1964429	0.038219072	0.00075413566	0.00022717856
0.19663984	0.041666668	0.00082960515	0.0002271664
0.19683677	0.033978663	0.00067067379	0.0002271664
0.1970337	0.037140574	0.00073767349	0.0002271664
0.19723064	0.03893524	0.00077176676	0.0002271664
0.19742757	0.040508341	0.00080260017	0.0002271664
0.1976245	0.034524288	0.00068717764	0.00022715423
0.19782144	0.033254158	0.00065717066	0.0002271664
0.19801837	0.03115016	0.00061749161	0.0002271664
0.19821531	0.031511769	0.00062477274	0.00022715998
0.19841225	0.035429936	0.00070207345	0.0002271664
0.19860919	0.03202562	0.00063617306	0.00022715423
0.19880612	0.037653588	0.00074532197	0.00022715423
0.19900306	0.031363089	0.00062435563	0.00022715423
0.19919999	0.028320702	0.00056139822	0.00022715423
0.19939692	0.031075697	0.00061589514	0.00022715423
0.19959386	0.033870969	0.0006756389	0.0002271664
0.19979079	0.033041403	0.00065491308	0.00022715423
0.19998772	0.03967936	0.00078978454	0.00022715423
0.20018466	0.036283892	0.00071987894	0.00022715998
0.20038161	0.040611178	0.00080885866	0.00022715423
0.20057854	0.033213284	0.00065954501	0.00022715423
0.20077547	0.041150618	0.00081774441	0.00022715423
0.20097241	0.037857432	0.00075488474	0.00022715423
0.20116934	0.037140574	0.00073724147	0.00022715423
0.20136628	0.041448694	0.00082664663	0.00022714208
0.20156321	0.037630104	0.00074852345	0.00022715423
0.20176014	0.043127771	0.0008611338	0.00022714208
0.20195708	0.038430743	0.00076422101	0.00022715423
0.20215401	0.041716807	0.00083055929	0.00022715998
0.20235096	0.041079339	0.0008192333	0.00022714208
0.20254789	0.033613447	0.00066765927	0.00022714208
0.20274483	0.043813389	0.00087794167	0.00022714208
0.20294176	0.042416967	0.00084383099	0.00022714208
0.20313869	0.033953112	0.00067761133	0.00022714208
0.20333563	0.039999999	0.0007994608	0.00022714208
0.20353256	0.041417763	0.00082202785	0.00022712992
0.2037295	0.037367992	0.0007480788	0.00022712992
0.20392643	0.038446136	0.00076510024	0.00022714208
0.20412336	0.042613637	0.00085353386	0.00022714782
0.20432031	0.047964532	0.00095779693	0.00022714208
0.20451725	0.054530874	0.0010868203	0.00022714208
0.20471418	0.0528026	0.0010589566	0.00022712992
0.20491111	0.051179528	0.0010190196	0.00022714208
0.20510805	0.060138155	0.0012073433	0.00022712992
0.20530498	0.051292408	0.0010264998	0.00022712992
0.20550191	0.062224008	0.0012413323	0.00022712992
0.20569885	0.076734692	0.0015452738	0.00022712992
0.20589578	0.077786691	0.0015526505	0.00022712992
0.20609272	0.077800408	0.0015649822	0.00022713565
0.20628966	0.069729947	0.0013952665	0.00022712992
0.2064866	0.051521298	0.0010331208	0.00022711777
0.20668353	0.066260159	0.0013312929	0.00022712992
0.20688047	0.067687348	0.0013540974	0.00022712992
0.2070774	0.0595624	0.0011944347	0.00022711777
0.20727433	0.060008056	0.0011994761	0.00022711777
0.20747127	0.062321793	0.0012527589	0.00022711777
0.2076682	0.061738424	0.0012391156	0.00022712992
0.20786513	0.049717057	0.0009948191	0.00022712992
0.20806207	0.055374593	0.0011126301	0.0002271235
0.20825902	0.037141703	0.00074147055	0.00022711777
0.20845595	0.047269765	0.00094957388	0.00022711777
0.20865288	0.037979797	0.00075889612	0.00022711777
0.20884982	0.031849734	0.00063883897	0.00022711777
0.20904675	0.028885273	0.00057792146	0.00022711777
0.20924369	0.04097363	0.00082052726	0.0002271056
0.20944062	0.032806803	0.00065557769	0.00022711777
0.20963755	0.036481556	0.00073000364	0.00022711777
0.20983449	0.033305921	0.00066976709	0.00022711777
0.21003142	0.026785715	0.00053536892	0.00022711133
0.21022837	0.032980457	0.0006611991	0.00022711777
0.2104253	0.032192338	0.00064533442	0.00022711777
0.21062224	0.033857316	0.00067523046	0.0002271056
0.21081917	0.035434693	0.00071473699	0.0002271056
0.2110161	0.029149797	0.00058244233	0.0002271056
0.21121304	0.039495114	0.00079239305	0.0002271056
0.21140997	0.034243785	0.00068672746	0.0002271056
0.2116069	0.03390523	0.0006805663	0.0002271056
0.21180384	0.034793288	0.0006991424	0.0002271056
0.21200077	0.044848483	0.00089657016	0.00022711133
0.21219772	0.047736626	0.00096346124	0.00022709343
0.21239465	0.0620378	0.0012528881	0.0002271056
0.21259159	0.041429732	0.00083030411	0.0002271056
0.21278852	0.039183673	0.00078713824	0.0002271056
0.21298546	0.033279222	0.00066576101	0.00022709343
0.21318239	0.038778879	0.00078252662	0.00022709343
0.21337932	0.036120132	0.00072296849	0.00022709343
0.21357626	0.041275032	0.000829681	0.0002271056
0.21377319	0.038794883	0.00078301114	0.0002271056
0.21397012	0.039886039	0.0007997065	0.00022709918
0.21416707	0.026563138	0.00053256308	0.00022709343
0.21436401	0.035059113	0.00070349843	0.00022709343
0.21456094	0.036154479	0.00072823022	0.00022709343
0.21475787	0.028735632	0.00057767937	0.00022708128
0.21495481	0.028606458	0.00057366892	0.00022709343
0.21515174	0.026628431	0.00053465681	0.00022709343
0.21534868	0.036021285	0.00072411448	0.00022708128
0.21554561	0.034170441	0.00068907492	0.00022709343
0.21574254	0.033088237	0.00066423806	0.00022708128
0.21593948	0.033744857	0.00068019459	0.00022709918
0.21613643	0.040640395	0.00081823167	0.00022708128
0.21633336	0.02706027	0.00054336881	0.00022708128
0.21653029	0.027937552	0.00056196528	0.00022708128
0.21672723	0.0248878	0.0004981258	0.00022709343
0.21692416	0.030515464	0.00061491679	0.00022708128
0.21712109	0.031211499	0.00062824017	0.00022708128
0.21731803	0.033264887	0.00066966866	0.00022708128
0.21751496	0.038699053	0.00078020082	0.00022708128
0.2177119	0.039918534	0.00080127496	0.00022708128
0.21790883	0.040714584	0.00082484412	0.00022708702
0.21810578	0.043709151	0.0008780639	0.00022708128
0.21830271	0.034297522	0.00069190364	0.00022708128
0.21849965	0.04238683	0.00085487386	0.00022706912
0.21869658	0.036415711	0.00073167495	0.00022708128
0.21889351	0.040215589	0.00081391435	0.00022706912
0.21909045	0.038508806	0.00077392079	0.00022706912
0.21928738	0.035905901	0.00072383176	0.00022706912
0.21948431	0.04867987	0.00098403334	0.00022706912
0.21968125	0.053020962	0.0010697986	0.00022706912
0.21987818	0.036318615	0.0007326199	0.00022707487
0.22007513	0.031518623	0.0006330093	0.00022706912
0.22027206	0.044379923	0.00089883321	0.00022706912
0.220469	0.03407225	0.0006854001	0.00022706912
0.22066593	0.036009934	0.00072766305	0.00022705697
0.22086287	0.03828736	0.00077201583	0.00022705697
0.2210598	0.034198601	0.00068911508	0.00022705697
0.22125673	0.040132396	0.00081156433	0.00022705697
0.22145367	0.031404957	0.00063353428	0.00022705697
0.2216506	0.026859503	0.00054071913	0.00022706912
0.22184753	0.038683128	0.00077980862	0.00022707487
0.22204448	0.031950209	0.00064605719	0.00022705697
0.22224142	0.042491749	0.00085805025	0.00022705697
0.22243835	0.033402063	0.00067339925	0.00022705697
0.22263528	0.034825869	0.00070411147	0.00022705697
0.22283222	0.038651317	0.00077840011	0.00022704482
0.22302915	0.035387177	0.0007166182	0.00022705697
0.22322609	0.036348615	0.0007336241	0.00022704482
0.22342302	0.035758324	0.00072043453	0.00022704482
0.22361995	0.038190119	0.00077318284	0.00022705697
0.22381689	0.039223783	0.00079198793	0.0002270627
0.22401384	0.033402923	0.00067765621	0.00022704482
0.22421077	0.031687241	0.00063798728	0.00022704482
0.2244077	0.035610765	0.00071977556	0.00022704482
0.22460464	0.032043278	0.00064832682	0.00022704482
0.22480157	0.029979466	0.0006023384	0.00022704482
0.2249985	0.031446543	0.00063881936	0.00022704482
0.22519544	0.038934425	0.00078306324	0.00022704482
0.22539237	0.039501041	0.00080067082	0.00022704482
0.22558931	0.030949393	0.00062808127	0.00022704482
0.22578624	0.040457703	0.00081330771	0.00022703838
0.22598319	0.029987505	0.00060725689	0.00022703265
0.22618012	0.033071518	0.00066791236	0.00022704482
0.22637706	0.033905398	0.00068878639	0.00022704482
0.22657399	0.034811437	0.0007039773	0.00022703265
0.22677092	0.037728027	0.00076338107	0.00022703265
0.22696786	0.037313432	0.00075436226	0.00022703265
0.22716479	0.033954453	0.00068592146	0.00022704482
0.22736172	0.026767043	0.00054309273	0.00022703265
0.22755866	0.02768595	0.00055806461	0.00022703265
0.22775559	0.035520267	0.0007212729	0.00022703265
0.22795253	0.04145937	0.00083952647	0.00022703838
0.22814947	0.033637874	0.00068107009	0.00022703265
0.22834641	0.029021559	0.00058656716	0.00022703265
0.22854334	0.038221855	0.00077386876	0.0002270205
0.22874027	0.03320723	0.00067587529	0.00022703265
0.22893721	0.033429634	0.00067392027	0.00022703265
0.22913414	0.027454242	0.00055515021	0.0002270205
0.22933108	0.026993355	0.00054516108	0.0002270205
0.22952801	0.029595666	0.00059961644	0.0002270205
0.22972494	0.032902956	0.00066682271	0.0002270205
0.22992188	0.030679934	0.00062012544	0.00022703838
0.23011883	0.03465765	0.00070712907	0.0002270205
0.23031576	0.02601156	0.0005240356	0.0002270205
0.23051269	0.03079484	0.00062315044	0.0002270205
0.23070963	0.027916666	0.00056492776	0.0002270205
0.23090656	0.027363185	0.00055213203	0.00022700834
0.23110349	0.026426174	0.00053620356	0.00022700834
0.23130043	0.039632875	0.00080423162	0.0002270205
0.23149736	0.032861896	0.00066481699	0.0002270205
0.2316943	0.036340851	0.000737619	0.0002270205
0.23189123	0.039020341	0.00078948529	0.00022701408
0.23208818	0.030595139	0.00062099082	0.00022700834
0.23228511	0.034554537	0.00069959351	0.00022700834
0.23248205	0.029251985	0.00059245987	0.00022700834
0.23267898	0.029325513	0.00059506635	0.00022700834
0.23287591	0.029509559	0.00059700123	0.00022700834
0.23307285	0.026767043	0.00054201356	0.00022700834
0.23326978	0.028773978	0.00058281742	0.00022700834
0.23346671	0.027128547	0.00054965942	0.00022700834
0.23366365	0.029857023	0.00060770026	0.00022700834
0.23386058	0.027128547	0.00054965942	0.00022701408
0.23405753	0.03468208	0.0007002576	0.00022699618
0.23425446	0.034917966	0.00071170833	0.00022700834
0.2344514	0.03691275	0.00075116486	0.00022699618
0.23464833	0.032595068	0.00066172867	0.00022699618
0.23484527	0.034280937	0.00069615478	0.00022700834
0.2350422	0.035117056	0.00071326952	0.00022700834
0.23523913	0.036959261	0.00075268361	0.00022699618
0.23543607	0.034554537	0.0007003154	0.00022699618
0.235633	0.027173912	0.00055090623	0.00022699618
0.23582993	0.028487641	0.00057813799	0.00022700192
0.23602688	0.031157894	0.00063455745	0.00022698403
0.23622382	0.037515633	0.00076116982	0.00022699618
0.23642075	0.041736227	0.00084769359	0.00022699618
0.23661768	0.03981559	0.00081007316	0.00022698403
0.23681462	0.038720537	0.00078906538	0.00022698403
0.23701155	0.030923527	0.00062729395	0.00022699618
0.23720849	0.039264828	0.00079737528	0.00022698403
0.23740542	0.041141897	0.00083813048	0.00022699618
0.23760235	0.041090146	0.00083637307	0.00022698403
0.23779929	0.036119279	0.00073504832	0.00022698977
0.23799624	0.037145242	0.00075387117	0.00022698403
0.23819317	0.038251366	0.00077922666	0.00022698403
0.2383901	0.04366079	0.00088929432	0.00022698403
0.23858704	0.038123168	0.00077550177	0.00022698403
0.23878397	0.041911148	0.00085337431	0.00022698403
0.2389809	0.034815438	0.00070815865	0.00022697187
0.23917784	0.035308953	0.00071902142	0.00022697187
0.23937477	0.036647011	0.00074736151	0.00022698403
0.23957171	0.030150754	0.00061234308	0.00022697187
0.23976864	0.035863221	0.00072754396	0.00022697762
0.23996559	0.03663158	0.00074668945	0.00022697187
0.24016252	0.043147206	0.00088264514	0.00022697187
0.24035946	0.037494674	0.00076889951	0.00022697187
0.24055639	0.037193574	0.00076025131	0.00022697187
0.24075332	0.032367975	0.00066325086	0.00022697187
0.24095026	0.03088803	0.00063519232	0.00022697187
0.24114719	0.029787235	0.00060980965	0.00022697187
0.24134412	0.038543899	0.0007927813	0.00022697187
0.24154106	0.031924073	0.00065835408	0.00022697187
0.24173799	0.040138111	0.00082876923	0.00022696547
0.24193494	0.03515625	0.00072669523	0.00022697187
0.24213187	0.029259896	0.00060220581	0.00022695972
0.24232881	0.036292087	0.00075391505	0.00022697187
0.24252574	0.032356799	0.00067191164	0.00022695972
0.24272268	0.029257642	0.00060653541	0.00022695972
0.24291961	0.031263761	0.00065050094	0.00022695972
0.24311654	0.027415143	0.00056673359	0.00022695972
0.24331348	0.029320301	0.00061285339	0.00022695972
0.24351041	0.024691358	0.00051309809	0.00022695972
0.24370734	0.033450704	0.00069619954	0.00022696547
0.24390429	0.040480427	0.00084843673	0.00022695972
0.24410123	0.043828264	0.00092184893	0.00022695972
0.24429816	0.046181172	0.00096777268	0.00022694757
0.24449509	0.043855641	0.00093092979	0.00022694757
0.24469203	0.030875577	0.00065769319	0.00022695972
0.24488896	0.03280225	0.00070471549	0.00022694757
0.2450859	0.039962389	0.00086074357	0.00022694757
0.24528283	0.027449124	0.00059014006	0.00022694757
0.24547976	0.031950407	0.00069186871	0.00022694757
0.2456767	0.034648702	0.00075423461	0.0002269533
0.24587364	0.034151033	0.00074312789	0.00022694757
0.24607058	0.034482758	0.00075428741	0.0002269354
0.24626751	0.020348838	0.0004423896	0.00022694757
0.24646445	0.0201871	0.00044147094	0.00022694757
0.24666138	0.03046683	0.00066918461	0.00022694757
0.24685831	0.033053774	0.00072752644	0.0002269354
0.24705525	0.034277197	0.00075650989	0.0002269354
0.24725218	0.030454319	0.00067337503	0.0002269354
0.24744911	0.038712922	0.00086186215	0.00022694757
0.24764605	0.033483259	0.00074242754	0.00022694115
0.247843	0.028197382	0.00062619511	0.0002269354
0.24803993	0.03834356	0.00086046703	0.0002269354
0.24823686	0.033828806	0.00075935927	0.0002269354
0.2484338	0.035132382	0.00078651466	0.00022692325
0.24863073	0.039094649	0.00088028534	0.0002269354
0.24882767	0.036008231	0.00080986117	0.00022692325
0.2490246	0.026901189	0.00060565257	0.00022692325
0.24922153	0.029258098	0.00066208112	0.00022692325
0.24941847	0.034769069	0.00078632036	0.00022692325
0.2496154	0.034264628	0.00078027329	0.000226929
0.24981235	0.033262935	0.00075822766	0.00022692965
0.25000927	0.038120106	0.00086451869	0.00022692325
0.2502062	0.032000002	0.00073198351	0.0002269354
0.25040314	0.035487287	0.00081008062	0.0002269111
0.25060007	0.028664142	0.00065998838	0.0002269226
0.25079703	0.024038462	0.00054897263	0.0002269111
0.25099397	0.030091349	0.00068989536	0.0002269111
0.2511909	0.029300055	0.00067539344	0.0002269111
0.25138783	0.02369413	0.00054312544	0.0002269111
0.25158477	0.028337875	0.00065457466	0.0002269111
0.2517817	0.032751091	0.00075791014	0.0002269111
0.25197864	0.023561643	0.00054402585	0.0002269111
0.25217557	0.035457063	0.00082413777	0.0002269111
0.2523725	0.035675082	0.0008287534	0.0002269111
0.25256944	0.022790439	0.00052958302	0.0002269111
0.25276637	0.020544142	0.00047656463	0.0002269111
0.2529633	0.028475711	0.00066563545	0.0002268868
0.25316024	0.031531531	0.00074098562	0.0002269111
0.25335717	0.025582718	0.00060180784	0.0002269111
0.25355411	0.03456356	0.00082799315	0.0002269111
0.25375104	0.03068592	0.00074316881	0.0002269111
0.25394797	0.033816423	0.00082218274	0.0002268868
0.25414491	0.028255528	0.00069083524	0.0002269111
0.25434184	0.063883618	0.0015947513	0.0002269111
0.25453877	0.039713543	0.0010041994	0.0002269226
0.25473574	0.023505708	0.00060008402	0.0002268868
0.25493267	0.021798365	0.0005601634	0.0002269111
0.25512961	0.026425591	0.00068492669	0.0002269111
0.25532654	0.032647267	0.00085929548	0.0002269111
0.25552347	0.023306629	0.00061868556	0.0002268868
0.25572041	0.03409091	0.00092725066	0.0002269111
0.25591734	0.019448947	0.00054024853	0.0002269111
0.25611427	0.029234737	0.00084038585	0.0002268868
0.25631121	0.036529679	0.0010863323	0.0002268868
0.25650814	0.030160226	0.00090901309	0.0002268868
0.25670508	0.020329138	0.00061314052	0.0002268868
0.25690201	0.027484143	0.00086992729	0.0002268868
0.25709894	0.028058361	0.00091997895	0.0002268868
0.25729588	0.030696576	0.0010300881	0.0002268868
0.25749281	0.025179856	0.00084530149	0.0002268868
0.25768974	0.026415095	0.00091047765	0.0002268868
0.25788668	0.034928847	0.0012247992	0.0002268868
0.25808361	0.029372497	0.0010469991	0.0002268868
0.25828055	0.023255814	0.00082266529	0.0002268868
0.25847748	0.020028612	0.0007264929	0.00022689829
0.25867444	0.029112082	0.0010805058	0.00022686248
0.25887138	0.021406727	0.00080723758	0.00022686248
0.25906831	0.033950616	0.0013012231	0.00022686248
0.25926524	0.030110935	0.0011642327	0.0002268868
0.25946218	0.035117056	0.0013891855	0.00022686248
0.25965911	0.054329373	0.0021851209	0.0002268868
0.25985605	0.03119584	0.0012590697	0.0002268868
0.26005298	0.029513888	0.0011940652	0.00022686248
0.26024991	0.034965035	0.0014186649	0.00022686248
0.26044685	0.039285716	0.0016163627	0.0002268868
0.26064378	0.049910873	0.0020656278	0.00022686248
0.26084071	0.053956833	0.0022466616	0.00022686248
0.26103765	0.031307552	0.0013046229	0.00022686248
0.26123458	0.04074074	0.0017144817	0.00022686248
0.26143152	0.03773585	0.0015991459	0.0002268868
0.26162845	0.044362292	0.0018620705	0.00022686248
0.26182538	0.034416825	0.0014591498	0.00022686248
0.26202232	0.045009784	0.0019376664	0.00022686248
0.26221925	0.017857144	0.00075067463	0.00022686248
0.26241618	0.024856597	0.0010452624	0.00022684968
0.26261315	0.023809524	0.0010164182	0.00022683818
0.26281008	0.022357723	0.00095324829	0.00022686248
0.26300701	0.024640657	0.0010620002	0.00022686248
0.26320395	0.060362171	0.0026586533	0.00022683818
0.26340088	0.035940804	0.0016049161	0.00022686248
0.26359782	0.039748956	0.0017610483	0.00022683818
0.26379475	0.03846154	0.0017239811	0.00022686248
0.26399168	0.012820513	0.00054157211	0.00022683818
0.26418862	0.036956523	0.0016673151	0.00022683818
0.26438555	0.029082773	0.0013145751	0.00022683818
0.26458248	0.020594966	0.00092991139	0.00022683818
0.26477942	0.038116593	0.0017529503	0.00022683818
0.26497635	0.041958041	0.0019709768	0.00022686248
0.26517329	0.027972028	0.0012945172	0.00022683818
0.26537022	0.017114915	0.0007844608	0.00022683818
0.26556715	0.045673076	0.0021758156	0.00022683818
0.26576409	0.032178219	0.0015400273	0.00022683818
0.26596102	0.02020202	0.00095082429	0.00022683818
0.26615795	0.03626943	0.0017812219	0.00022683818
0.26635489	0.03836317	0.0018677666	0.00022684968
0.26655185	0.04509284	0.0022477426	0.00022681388
0.26674879	0.20273973	0.010554404	0.00022683818
0.26694572	0.11621621	0.0059759007	0.00022683818
0.26714265	0.052054796	0.0026556419	0.00022681388
0.26733959	0.025423728	0.0012757794	0.00022681388
0.26753652	0.028571429	0.0014346982	0.00022681388
0.26773345	0.036253776	0.0018962112	0.00022683818
0.26793039	0.038805969	0.0020400661	0.00022683818
0.26812732	0.056213018	0.0029804471	0.00022683818
0.26832426	0.043749999	0.0023474207	0.00022683818
0.26852119	0.044444446	0.0024169092	0.00022683818
0.26871812	0.025723472	0.0013666357	0.00022683818
0.26891506	0.045016076	0.0024501632	0.00022681388
0.26911199	0.016835017	0.0008752108	0.00022683818
0.26930892	0.03691275	0.0020422169	0.00022683818
0.26950586	0.041522492	0.0023247572	0.00022683818
0.26970279	0.020618556	0.0011052707	0.00022681388
0.26989973	0.032608695	0.0018539194	0.00022681388
0.27009666	0.026217228	0.0014882386	0.00022681388
0.27029359	0.030534351	0.0017679601	0.00022684968
0.27049056	0.021978023	0.0011752545	0.00022681388
0.27068749	0.015564202	0.00084243715	0.00022681388
0.27088442	0.016064256	0.00088341633	0.00022681388
0.27108136	0.012552301	0.00066433824	0.00022681388
0.27127829	0.012605042	0.00066853553	0.00022681388
0.27147523	0	0	0.00022681388
0.27167216	0.022727273	0.0017229501	0.00022681388
0.27186909	0	0	0.00022681388
0.27206603	0	0	0.00022681388
0.27226296	0	0	0.00022681388
