#   DataFileName=PAL30_100C_WAXS_08172017.tif
#   DataFileType=.tif
#   
#   DataFilePath=E:DATA:PAL30_08262017:
#   
#   Processed on=Wed, Jan 16, 2019,2:42:16 AM
#   Units=Arbitrary
#   SampleThickness=1
#   SampleTransmission=1
#   CorrectionFactor=1
#   SampleMeasurementTime=1
#   EmptyMeasurementTime=1
#   BackgroundMeasTime=1
#   SampleI0=1
#   EmptyI0=1
#   Nika_SampleToDetectorDistacne=1552.1
#   Nika_Wavelength=1.54
#   Nika_XrayEnergy=8.0509
#   Nika_PixelSizeX=0.075
#   Nika_PixelSizeY=0.075
#   Nika_HorizontalTilt=0
#   Nika_VerticalTilt=0
#   Nika_BeamCenterX=1540.3
#   Nika_BeamCenterY=830.17
#   Nika_BeamSizeX=0
#   Nika_BeamCenterY=830.17
#   CalibrationFormula=1*((Sa2D))
#   CurrentMaskFileName=PAL30_30C_WAXS_mask.hdf
#   QvectorMaxNumPnts=1
#   QvectorNumberPoints=1383
#   CircularAverage=1
#   PolarizationCorrection=None
#   UncertainityCalculationMethod=OldNikaMethod

0.0060065244	7	4.472136	0.00022756745
0.00620346	3.6400001	0.72037023	0.00022756765
0.0064003952	2.6140351	0.34433118	0.00022756765
0.0065973303	3.4875	0.38884771	0.00022756765
0.0067942655	4.8163266	0.48304307	0.00022756765
0.0069912006	6.0560746	0.57430273	0.00022756745
0.0071881362	7.52459	0.66394407	0.00022756727
0.0073850714	8.7022905	0.74116296	0.00022756727
0.0075820065	9.0482759	0.73722619	0.00022756727
0.0077789417	8.0272112	0.64941573	0.00022756745
0.0079758773	7.386076	0.57734644	0.00022756746
0.0081728119	6.3251534	0.4861784	0.00022756707
0.0083697475	5.8314605	0.42937508	0.00022756671
0.0085666822	4.8393784	0.34312695	0.00022756783
0.0087636178	4.5999999	0.32489535	0.00022756783
0.0089605534	3.9383886	0.26714817	0.00022756746
0.0091574881	3.5633187	0.23222822	0.00022756707
0.0093544237	3.132	0.19584174	0.00022756671
0.0095513584	2.9277565	0.17821251	0.00022756707
0.009748294	2.7683823	0.16582376	0.00022756707
0.0099452296	2.2779784	0.13550997	0.00022756595
0.010142164	2.2158272	0.13146184	0.00022756707
0.0103391	1.9225589	0.11057727	0.00022756671
0.010536035	1.681356	0.09700311	0.00022756707
0.01073297	1.6217105	0.092163406	0.00022756783
0.010929906	1.7749196	0.099752039	0.00022756746
0.01112684	1.4089457	0.078882203	0.00022756783
0.011323776	1.370482	0.074602917	0.00022756746
0.011520711	1.3292683	0.072679602	0.00022756707
0.011717646	1.204142	0.064834066	0.00022756707
0.011914582	1.1432749	0.061346523	0.00022756746
0.012111517	1.052174	0.056228444	0.00022756783
0.012308452	1.0412087	0.054141108	0.00022756671
0.012505387	1.0028249	0.052842706	0.00022756783
0.012702323	0.84656084	0.043228514	0.00022756783
0.012899258	0.88471848	0.045447771	0.00022756671
0.013096193	0.76439792	0.038837992	0.00022756707
0.013293128	0.78005117	0.039156336	0.00022756671
0.013490063	0.693299	0.034950152	0.00022756707
0.013686999	0.625	0.0307412	0.00022756707
0.013883934	0.69099754	0.033834018	0.00022756671
0.014080869	0.56698567	0.02756672	0.00022756707
0.014277805	0.64941174	0.031313438	0.00022756671
0.014474739	0.53664303	0.025941502	0.0002275663
0.014671675	0.46952596	0.02215999	0.00022756707
0.014868611	0.47499999	0.022496762	0.00022756671
0.015065545	0.43076923	0.020081297	0.0002275663
0.015262481	0.42274678	0.019469324	0.00022756671
0.015459416	0.4989011	0.023231434	0.00022756595
0.01565635	0.42643923	0.019555815	0.00022756707
0.015853286	0.46709129	0.021398807	0.00022756554
0.016050221	0.37525773	0.016949723	0.00022756707
0.016247157	0.39068827	0.017434126	0.00022756707
0.016444093	0.37400001	0.016549677	0.00022756483
0.016641026	0.35140562	0.015657606	0.00022756707
0.016837962	0.36673346	0.016325157	0.00022756707
0.017034898	0.28793773	0.012614296	0.00022756554
0.017231833	0.32695985	0.014207744	0.00022756554
0.017428769	0.34155598	0.014777653	0.00022756483
0.017625703	0.27850467	0.011954235	0.00022756554
0.017822638	0.273743	0.011755026	0.00022756554
0.018019574	0.27757353	0.011839244	0.00022756554
0.018216509	0.28832117	0.01225889	0.00022756554
0.018413445	0.27012521	0.011360591	0.00022756483
0.018610379	0.19964664	0.008346078	0.00022756554
0.018807314	0.21815009	0.0090554012	0.00022756554
0.01900425	0.24956672	0.010342295	0.00022756554
0.019201186	0.27097902	0.011274081	0.00022756554
0.019398121	0.22278057	0.009071378	0.00022756483
0.019595055	0.22033899	0.009028811	0.00022756554
0.019791991	0.22975206	0.0092977788	0.00022756554
0.019988926	0.18512397	0.0074892272	0.00022756554
0.020185862	0.24019608	0.0096606929	0.00022756554
0.020382797	0.18949045	0.0075254533	0.00022756483
0.020579731	0.17799352	0.0071074762	0.00022756403
0.020776667	0.18495297	0.007285879	0.00022756403
0.020973602	0.1658842	0.0065146009	0.00022756554
0.021170538	0.17031249	0.0066922242	0.00022756403
0.021367474	0.15987934	0.0061678146	0.0002275633
0.021564407	0.14551084	0.00568718	0.00022756403
0.021761343	0.15695067	0.0060336473	0.00022756403
0.021958278	0.19607843	0.007574216	0.00022756403
0.022155214	0.1585903	0.0060424288	0.00022756403
0.02235215	0.14825581	0.0056126504	0.0002275633
0.022549083	0.16593245	0.0063189627	0.00022756403
0.022746019	0.13333334	0.004989231	0.00022756403
0.022942955	0.1420373	0.0053489143	0.00022756403
0.02313989	0.14710042	0.0055043711	0.00022756403
0.023336826	0.11854951	0.0043956204	0.0002275633
0.02353376	0.14064698	0.0052322634	0.00022756403
0.023730695	0.10040706	0.0036664219	0.00022756403
0.023927631	0.10344828	0.0038168433	0.0002275625
0.024124566	0.10455764	0.0038009875	0.00022756403
0.024321502	0.093833782	0.003411039	0.00022756179
0.024518436	0.12885906	0.0046928292	0.0002275625
0.024715371	0.098814227	0.0035605873	0.0002275625
0.024912307	0.13474241	0.0048717167	0.0002275625
0.025109243	0.11764706	0.0041848002	0.0002275625
0.025306178	0.12031048	0.0043016896	0.00022756179
0.025503112	0.1238825	0.0044023995	0.0002275625
0.025700048	0.096569248	0.0034181711	0.0002275625
0.025896983	0.11450382	0.0040599876	0.0002275625
0.026093919	0.10221675	0.0035660546	0.00022756097
0.026290854	0.117866	0.0041244342	0.00022756179
0.026487788	0.12317073	0.0042779073	0.0002275625
0.026684724	0.11246943	0.0039096233	0.00022756097
0.026881659	0.095006093	0.0032936749	0.0002275625
0.027078595	0.097852029	0.003359549	0.00022756097
0.027275531	0.09987966	0.0034413659	0.00022756179
0.027472464	0.10710128	0.0036316703	0.00022756097
0.0276694	0.10283688	0.0035140137	0.00022756097
0.027866336	0.090487242	0.0030619239	0.00022756097
0.028063271	0.094186045	0.0031907295	0.00022756097
0.028260207	0.090909094	0.003082341	0.00022756026
0.028457141	0.080808081	0.0026871848	0.00022756097
0.028654076	0.09307605	0.0031165241	0.00022756097
0.028851012	0.088366888	0.0029368789	0.00022756097
0.029047947	0.078387462	0.0026036326	0.00022756097
0.029244883	0.071991004	0.002396317	0.00022756026
0.029441817	0.09150327	0.0030015092	0.00022756097
0.029638752	0.096703298	0.0031866694	0.00022755946
0.029835688	0.10787486	0.0035257931	0.00022756097
0.030032624	0.086021505	0.0028028036	0.00022755946
0.030229559	0.089826837	0.0029340675	0.00022755875
0.030426493	0.075531915	0.0024469784	0.00022755946
0.030623429	0.096911609	0.0031445359	0.00022755946
0.030820364	0.079463363	0.0025356754	0.00022755946
0.0310173	0.087276548	0.0028124473	0.00022755946
0.031214235	0.078838177	0.0025210974	0.00022755946
0.031411171	0.087268993	0.0027792612	0.00022755875
0.031608105	0.096173733	0.0030762188	0.00022755571
0.031805038	0.066734076	0.0021054745	0.00022756017
0.032001976	0.06875632	0.0021708095	0.00022755875
0.03219891	0.082412057	0.0025967904	0.00022756017
0.032395847	0.080919079	0.0025422564	0.00022755875
0.032592781	0.072492555	0.002267268	0.00022755875
0.032789715	0.08121331	0.0025244276	0.00022756017
0.032986652	0.08275862	0.0025826709	0.00022755571
0.033183586	0.061343718	0.0018969411	0.00022755713
0.033380523	0.075144507	0.0023177217	0.00022755875
0.033577457	0.066473991	0.0020457404	0.00022755571
0.033774391	0.06768351	0.0020747213	0.00022755713
0.033971328	0.073473282	0.0022547313	0.00022755571
0.034168262	0.069063388	0.0021098687	0.00022756017
0.0343652	0.081998117	0.0025030314	0.00022755571
0.034562133	0.073351905	0.0022183654	0.00022755571
0.034759067	0.070500925	0.0021333317	0.00022756017
0.034956004	0.075000003	0.0022676957	0.00022755571
0.035152938	0.060273971	0.0018071822	0.00022755713
0.035349876	0.061131388	0.0018327162	0.00022755571
0.035546809	0.06987296	0.0020913582	0.00022755571
0.035743743	0.064311594	0.0019223567	0.00022755713
0.035940681	0.060089685	0.0017860573	0.00022755571
0.036137614	0.069271758	0.0020502941	0.00022755713
0.036334552	0.087033749	0.0025796704	0.00022755266
0.036531486	0.065255731	0.0019248124	0.00022755266
0.036728419	0.079365082	0.0023432411	0.00022755713
0.036925357	0.063478261	0.0018591074	0.00022755571
0.037122291	0.061685491	0.0018046963	0.00022755713
0.037319228	0.068457536	0.0020003461	0.00022755571
0.037516162	0.06955047	0.0020131064	0.00022755266
0.037713096	0.064267352	0.0018688301	0.00022755713
0.037910033	0.064735949	0.0018770157	0.00022755266
0.038106967	0.067854114	0.0019636578	0.00022755409
0.038303904	0.062447257	0.0018011972	0.00022755266
0.038500838	0.056572378	0.0016200206	0.00022755266
0.038697772	0.071074381	0.0020316145	0.00022755409
0.038894709	0.076158941	0.0021796676	0.00022755266
0.039091643	0.065343261	0.0018671943	0.00022755409
0.03928858	0.05409836	0.0015376835	0.00022755266
0.039485514	0.045491472	0.0012850609	0.00022755266
0.039682448	0.068237208	0.0019332193	0.00022755409
0.039879385	0.057831325	0.0016272746	0.00022755266
0.040076319	0.0592	0.0016625099	0.00022755409
0.040273257	0.072231136	0.0020349363	0.00022754962
0.04047019	0.06762132	0.0018965233	0.00022754962
0.040667124	0.075456709	0.0021152664	0.00022755409
0.040864062	0.070367478	0.0019566698	0.00022755266
0.041060995	0.069206841	0.0019177842	0.00022755409
0.041257933	0.068642743	0.0019069458	0.00022754962
0.041454867	0.064591438	0.0017911529	0.00022755266
0.0416518	0.058365759	0.0016170595	0.00022755409
0.041848738	0.061832063	0.0016976385	0.00022754962
0.042045671	0.052471481	0.0014357704	0.00022754801
0.042242609	0.06996198	0.0019181373	0.00022754657
0.042439543	0.071374334	0.001956556	0.00022754353
0.042636476	0.0661157	0.0018016484	0.00022754801
0.042833414	0.077560239	0.0021181714	0.00022754657
0.043030348	0.073935769	0.0020098018	0.00022754801
0.043227285	0.052437223	0.0014140777	0.00022754353
0.043424219	0.050110538	0.0013498826	0.00022754353
0.043621153	0.05882353	0.0015851575	0.00022754801
0.04381809	0.046187684	0.0012404559	0.00022754353
0.044015024	0.059253842	0.0015923018	0.00022754495
0.044211961	0.05652174	0.0015115218	0.00022754353
0.044408895	0.056834534	0.0015140572	0.00022754353
0.044605829	0.051005747	0.0013568305	0.00022754495
0.044802766	0.045193687	0.0012006193	0.00022754353
0.0449997	0.06067095	0.0016119329	0.00022754495
0.045196638	0.053710248	0.0014181676	0.00022754353
0.045393571	0.062411349	0.0016527717	0.00022754353
0.045590505	0.060266294	0.0015861933	0.00022754495
0.045787442	0.053997196	0.0014198872	0.00022754048
0.045984376	0.052083332	0.0013635634	0.00022754191
0.046181314	0.058986817	0.0015450518	0.00022754353
0.046378247	0.051104974	0.0013331289	0.00022754048
0.046575181	0.058701657	0.0015334293	0.00022754191
0.046772119	0.065798491	0.0017134553	0.00022754353
0.046969052	0.058543228	0.0015178089	0.00022754495
0.04716599	0.059304703	0.0015393506	0.00022754048
0.047362924	0.061320756	0.0015822167	0.00022754048
0.047559857	0.059651475	0.0015349552	0.00022754495
0.047756795	0.082605779	0.0021318791	0.00022754048
0.047953729	0.059691481	0.0015370896	0.00022754495
0.048150666	0.068347707	0.0017518067	0.00022754048
0.0483476	0.062375579	0.0015967337	0.00022754048
0.048544534	0.058939096	0.001498126	0.00022754191
0.048741471	0.052735664	0.0013431613	0.00022753744
0.048938405	0.05602606	0.0014195931	0.00022754191
0.049135342	0.058977719	0.0015003502	0.00022754048
0.049332276	0.057031758	0.001442009	0.00022753744
0.04952921	0.05886158	0.0014865219	0.00022753887
0.049726147	0.051579624	0.0012992291	0.00022753744
0.049923081	0.046865106	0.0011693796	0.00022754191
0.050120018	0.054987211	0.0013812321	0.00022753744
0.050316952	0.067178503	0.0016887091	0.00022753744
0.050513886	0.046349205	0.001157801	0.00022753887
0.050710823	0.058338616	0.0014581995	0.00022753744
0.050907757	0.044072006	0.0010866534	0.00022753887
0.051104695	0.065584011	0.0016295309	0.00022753744
0.051301628	0.061173532	0.0015186382	0.00022753744
0.051498562	0.056179777	0.0013923935	0.00022753887
0.0516955	0.06369821	0.0015742878	0.00022753744
0.051892433	0.052019585	0.0012782529	0.00022753887
0.052089371	0.05617284	0.0013864986	0.0002275344
0.052286305	0.041287187	0.0010088129	0.00022753744
0.052483238	0.043768998	0.0010700711	0.00022753583
0.052680176	0.04924012	0.0012050344	0.0002275344
0.052877109	0.052279636	0.0012799334	0.00022753887
0.053074047	0.052441228	0.0012779026	0.0002275344
0.053270981	0.054925375	0.0013327311	0.00022753744
0.053467914	0.062649168	0.0015203836	0.00022753887
0.053664852	0.051282052	0.0012573801	0.0002275344
0.053861786	0.055108361	0.0013613779	0.00022753583
0.054058723	0.056039851	0.0013892817	0.0002275344
0.054255657	0.064935066	0.0016046626	0.0002275344
0.054452591	0.055034395	0.0013663706	0.00022753583
0.054649528	0.054897066	0.0013610799	0.0002275344
0.054846462	0.053918496	0.0013393121	0.00022753583
0.055043399	0.045368619	0.0011292782	0.00022753136
0.055240333	0.035375867	0.00087799598	0.0002275344
0.055437267	0.050409578	0.0012552633	0.00022753583
0.055634204	0.046933666	0.0011638516	0.00022753136
0.055831138	0.050031666	0.0012490442	0.00022753279
0.056028076	0.049716804	0.0012368662	0.00022753136
0.056225009	0.068900123	0.0017219225	0.00022753136
0.056421943	0.058710914	0.0014721833	0.00022753279
0.05661888	0.051539913	0.0012819272	0.00022753136
0.056815814	0.059710875	0.0014868852	0.00022753279
0.057012752	0.050632913	0.0012620091	0.00022753136
0.057209685	0.0625	0.0015600113	0.00022752832
0.057406619	0.058080807	0.0014494108	0.00022753279
0.057603557	0.061907768	0.0015460672	0.00022753136
0.05780049	0.065822788	0.0016441784	0.00022753279
0.057997428	0.063442208	0.0015801323	0.00022752832
0.058194362	0.065656565	0.0016381068	0.00022752832
0.058391295	0.066961467	0.0016721073	0.00022752974
0.058588233	0.058897242	0.0014641846	0.00022752832
0.058785167	0.046835445	0.0011684865	0.00022752974
0.058982104	0.047768697	0.001187133	0.00022752832
0.059179038	0.047738694	0.0011860144	0.00022752832
0.059375972	0.058527377	0.0014570238	0.00022752974
0.059572909	0.05075188	0.0012590116	0.00022752528
0.059769843	0.057340894	0.0014280508	0.00022752974
0.05996678	0.060718711	0.0015010958	0.00022752528
0.060163714	0.045998741	0.001143816	0.00022752528
0.060360648	0.055486284	0.0013739979	0.00022752974
0.060557585	0.040075142	0.00099279394	0.00022752528
0.060754519	0.042314872	0.0010455676	0.0002275267
0.060951456	0.044943821	0.0011123581	0.00022752528
0.06114839	0.059738643	0.0014797969	0.00022752528
0.061345324	0.048567869	0.0012014958	0.0002275267
0.061542261	0.040993787	0.0010113617	0.00022752528
0.061739195	0.039800994	0.00098311179	0.0002275267
0.061936133	0.054556727	0.0013480859	0.00022752528
0.062133066	0.0625	0.0015447482	0.00022752528
0.06233	0.056000002	0.0013790887	0.00022752528
0.062526934	0.046353523	0.001140679	0.0002275251
0.062723875	0.052729528	0.001302316	0.00022751919
0.062920809	0.048705302	0.0011993047	0.00022752528
0.063117743	0.037817731	0.00093212101	0.00022751919
0.063314676	0.047735617	0.0011709351	0.00022751919
0.06351161	0.050702505	0.0012428483	0.00022752814
0.063708551	0.060085837	0.0014783074	0.00022751919
0.063905485	0.046971571	0.0011577402	0.00022751919
0.064102419	0.043292683	0.0010603087	0.00022751919
0.064299352	0.039804041	0.00097604172	0.00022752528
0.064496286	0.047589995	0.0011649949	0.00022752205
0.064693227	0.058323208	0.0014276631	0.00022751919
0.064890161	0.043030303	0.0010498338	0.00022751919
0.065087095	0.038485035	0.00094220648	0.00022752528
0.065284029	0.042150274	0.0010325332	0.00022752528
0.065480962	0.036319613	0.0008846217	0.00022752205
0.065677904	0.037906136	0.00092054985	0.00022752528
0.065874837	0.046581972	0.0011362709	0.00022751919
0.066071771	0.042745333	0.0010392101	0.00022751919
0.066268705	0.044135429	0.0010754219	0.00022751919
0.066465639	0.056592416	0.0013792255	0.00022752205
0.06666258	0.047904193	0.0011635754	0.00022751919
0.066859514	0.042398546	0.0010352244	0.00022751919
0.067056447	0.05350773	0.0012956879	0.00022751919
0.067253381	0.050806932	0.0012324225	0.00022751919
0.067450315	0.058577407	0.0014216267	0.00022751596
0.067647256	0.049700599	0.0012058285	0.00022751919
0.06784419	0.050959233	0.0012390137	0.00022751919
0.068041123	0.044970416	0.0010856801	0.00022751311
0.068238057	0.042086545	0.0010162997	0.00022751311
0.068434991	0.05644682	0.0013672384	0.00022752205
0.068631932	0.034278959	0.00082537846	0.00022751311
0.068828866	0.051435407	0.0012481924	0.00022751311
0.0690258	0.040911749	0.00098042586	0.00022751311
0.069222733	0.044273909	0.0010672783	0.00022751311
0.069419667	0.050236408	0.0012129107	0.00022751596
0.069616608	0.049237985	0.0011843046	0.00022751311
0.069813542	0.046388727	0.0011167473	0.00022751311
0.070010476	0.053592462	0.0012925243	0.00022751311
0.07020741	0.048434731	0.0011690528	0.00022751311
0.070404343	0.05430387	0.0012965482	0.00022752205
0.070601285	0.04962055	0.0011903365	0.00022751311
0.070798218	0.052295178	0.0012522007	0.00022751311
0.070995152	0.045747802	0.0010994658	0.00022751311
0.071192086	0.051371861	0.0012328882	0.00022751311
0.071389019	0.051208284	0.0012203573	0.00022751596
0.071585961	0.038863108	0.00092692889	0.00022750701
0.071782894	0.045086704	0.0010755355	0.00022751311
0.071979828	0.042948347	0.0010260534	0.00022751311
0.072176762	0.050720461	0.0012098253	0.00022751311
0.072373696	0.040114611	0.00095151045	0.00022751596
0.072570637	0.053333335	0.0012758086	0.00022751311
0.072767571	0.04491188	0.0010633158	0.00022750701
0.072964504	0.042824075	0.0010221718	0.00022750701
0.073161438	0.04770017	0.0011290847	0.00022751311
0.073358372	0.041189931	0.00097668904	0.00022750988
0.073555313	0.045506913	0.0010838157	0.00022750701
0.073752247	0.033917468	0.00079899008	0.00022751311
0.073949181	0.046232875	0.0010964941	0.00022750701
0.074146114	0.050933786	0.0012040656	0.00022751311
0.074343048	0.042213347	0.00099963672	0.00022750988
0.074539989	0.04713231	0.0011148778	0.00022750701
0.074736923	0.050307434	0.0011810323	0.00022750701
0.074933857	0.042686399	0.0010094686	0.00022750701
0.07513079	0.038851351	0.00091408793	0.00022750701
0.075327724	0.034909911	0.00082146458	0.0002275038
0.075524665	0.046760563	0.0011015488	0.00022750701
0.075721599	0.03285078	0.00076742977	0.00022750093
0.075918533	0.033783782	0.00079404516	0.00022750701
0.076115467	0.027979854	0.00065434613	0.00022750701
0.0763124	0.036292575	0.00085016253	0.00022750988
0.076509342	0.049499445	0.001158882	0.00022750701
0.076706275	0.048306495	0.0011308214	0.00022750701
0.076903209	0.044282511	0.0010405311	0.00022750701
0.077100143	0.049035814	0.0011438065	0.00022750093
0.077297077	0.052660752	0.0012319892	0.0002275038
0.077494018	0.033370413	0.00077885069	0.00022750093
0.077690952	0.047278725	0.001101318	0.00022750093
0.077887885	0.039554317	0.00092595519	0.00022750093
0.078084819	0.036492374	0.00084455329	0.00022750093
0.078281753	0.046780407	0.0010897507	0.0002275038
0.078478694	0.035773251	0.00083117449	0.00022750093
0.078675628	0.04314582	0.0010008808	0.00022750093
0.078872561	0.043550167	0.0010149861	0.00022750093
0.079069495	0.044686649	0.0010356773	0.00022750093
0.079266429	0.061102018	0.0014191085	0.0002275038
0.07946337	0.047437295	0.0010991052	0.00022750093
0.079660304	0.034613304	0.00079826848	0.00022750093
0.079857238	0.03167668	0.00073295907	0.00022750093
0.080054171	0.043266632	0.00099968782	0.00022750093
0.080251105	0.045231607	0.0010491917	0.0002275038
0.080448046	0.033423182	0.00076954177	0.00022749485
0.08064498	0.0369379	0.00084810983	0.00022750093
0.080841914	0.037398376	0.00086383667	0.00022750093
0.081038848	0.037553649	0.0008625632	0.00022749485
0.081235781	0.034632035	0.00079832115	0.00022749772
0.081432723	0.036819637	0.00084331853	0.00022749485
0.081629656	0.041066665	0.00094150007	0.00022749485
0.08182659	0.039635777	0.00091082684	0.00022749485
0.082023524	0.032996275	0.00075464277	0.00022749485
0.082220457	0.035275254	0.00080896576	0.00022749772
0.082417399	0.046399999	0.0010646727	0.00022749485
0.082614332	0.039382651	0.00090177951	0.00022749485
0.082811266	0.041954327	0.00096016983	0.00022749485
0.0830082	0.039473683	0.0008987945	0.00022749485
0.083205134	0.032769557	0.00074667914	0.00022749163
0.083402075	0.03169572	0.00072177057	0.00022749485
0.083599009	0.038850453	0.00088948692	0.00022749485
0.083795942	0.038300104	0.00087065028	0.00022748877
0.083992876	0.040335253	0.00091598445	0.00022749485
0.08418981	0.030890053	0.00069871993	0.00022749772
0.084386751	0.035583463	0.00080606039	0.00022748877
0.084583685	0.037114479	0.00084160193	0.00022749485
0.084780619	0.026548672	0.00059944758	0.00022749485
0.084977552	0.039665971	0.00089965551	0.00022748877
0.085174486	0.04033092	0.00091081636	0.00022749163
0.085371427	0.039521582	0.0008947468	0.00022748877
0.085568361	0.036541432	0.00082284585	0.00022748877
0.085765295	0.036008231	0.00081036548	0.00022748877
0.085962228	0.038581856	0.00087408593	0.00022748877
0.086159162	0.042224512	0.00095168839	0.00022748555
0.086356103	0.038226299	0.00085636764	0.00022748877
0.086553037	0.033880904	0.00076129223	0.00022748877
0.086749971	0.036566786	0.00081773382	0.00022748877
0.086946905	0.030864198	0.0006937462	0.00022748268
0.087143838	0.039026864	0.00087251834	0.00022749163
0.08734078	0.039265681	0.00087993784	0.00022748877
0.087537713	0.035967577	0.00080337387	0.00022748268
0.087734647	0.040971167	0.00091541727	0.00022748877
0.087931581	0.036077235	0.00080607476	0.00022748877
0.088128515	0.036162734	0.00080405787	0.00022748555
0.088325456	0.038267877	0.00085235457	0.00022748268
0.08852239	0.035949368	0.00080227817	0.00022748268
0.088719323	0.046929605	0.0010418266	0.00022748268
0.088916257	0.046092186	0.0010254611	0.00022748268
0.089113191	0.038961038	0.00086479983	0.00022748555
0.089310132	0.035964034	0.00079759536	0.00022748268
0.089507066	0.034362551	0.0007606385	0.00022748268
0.089703999	0.038690478	0.0008558057	0.00022748268
0.089900933	0.0385	0.00085505296	0.00022748268
0.090097867	0.040826365	0.00089942204	0.00022747947
0.090294808	0.048853438	0.0010845385	0.00022748268
0.090491742	0.048347313	0.001068063	0.00022748268
0.090688676	0.042016808	0.00092758465	0.00022748268
0.090885609	0.042941757	0.00094749226	0.0002274766
0.091082543	0.039389465	0.00086834905	0.00022748268
0.091279477	0.040334482	0.00088823214	0.00022748555
0.091476418	0.03787506	0.0008334585	0.0002274766
0.091673352	0.03125	0.00068511529	0.00022748268
0.091870286	0.032891508	0.00072283013	0.0002274766
0.092067219	0.040156711	0.00088236539	0.0002274766
0.092264153	0.0345667	0.00075689121	0.00022747947
0.092461094	0.040487804	0.00088838628	0.0002274766
0.092658028	0.038141809	0.00083794259	0.0002274766
0.092854962	0.035316885	0.00077091856	0.0002274766
0.093051895	0.048332527	0.0010555791	0.0002274766
0.093248829	0.045653231	0.0010000658	0.00022747337
0.09344577	0.041565973	0.00090646464	0.0002274766
0.093642704	0.043731779	0.00095645961	0.00022747052
0.093839638	0.040019285	0.00087172259	0.0002274766
0.094036572	0.043290045	0.00094235665	0.0002274766
0.094233505	0.03034682	0.00066004426	0.00022747947
0.094430447	0.034003831	0.00073817873	0.00022747052
0.09462738	0.036714975	0.00080014853	0.00022747052
0.094824314	0.039215688	0.00085165573	0.00022747052
0.095021248	0.040210627	0.00087372767	0.00022747052
0.095218182	0.04093289	0.00088692649	0.00022747337
0.095415123	0.052556138	0.0011428704	0.00022747052
0.095612057	0.03239638	0.0007009845	0.00022747052
0.09580899	0.039467428	0.00085475808	0.00022747052
0.096005924	0.040669855	0.00088370522	0.00022747052
0.096202858	0.041251779	0.00089234358	0.00022747337
0.096399799	0.037352245	0.00080644485	0.00022747052
0.096596733	0.035747882	0.00076968566	0.00022746444
0.096793666	0.039224952	0.00084701658	0.00022747052
0.0969906	0.030245747	0.00065170374	0.00022746444
0.097187534	0.036757775	0.00079221424	0.00022747337
0.097384475	0.033065658	0.00071307452	0.00022746444
0.097581409	0.034304511	0.00073842605	0.00022747052
0.097778343	0.039087947	0.00083786843	0.00022746444
0.097975276	0.038588237	0.00083104393	0.00022746444
0.09817221	0.032649253	0.0006990644	0.00022746729
0.098369151	0.050919376	0.0010993367	0.00022746444
0.098566085	0.042612322	0.00090989651	0.00022746444
0.098763019	0.031381734	0.00067332416	0.00022746444
0.098959953	0.032839961	0.00070045877	0.00022746444
0.099156886	0.038799077	0.00082800089	0.00022746121
0.099353828	0.037815128	0.00081081397	0.00022746444
0.099550761	0.030204462	0.00064482604	0.00022745834
0.099747695	0.03503919	0.00074677647	0.00022745834
0.099944629	0.030064754	0.00064082036	0.00022745834
0.10014156	0.040459771	0.00086145016	0.00022746121
0.1003385	0.036917396	0.00078776258	0.00022745834
0.10053544	0.038990825	0.00082954089	0.00022746444
0.10073237	0.036245354	0.00077583315	0.00022745834
0.1009293	0.038955089	0.00082828419	0.00022746444
0.10112624	0.033181816	0.00070206745	0.00022746121
0.10132318	0.0390625	0.00083147938	0.00022746444
0.10152011	0.039073147	0.00082693773	0.00022745834
0.10171705	0.042524006	0.00090312888	0.00022745834
0.10191398	0.041020967	0.00086999638	0.00022745834
0.10211091	0.042028323	0.00089221552	0.00022746121
0.10230786	0.03183265	0.00067355728	0.00022745834
0.10250479	0.038878843	0.00082111388	0.00022745226
0.10270172	0.038738739	0.00081690267	0.00022745226
0.10289866	0.031890661	0.00067511934	0.00022745226
0.10309559	0.040613718	0.00085739268	0.00022745512
0.10329253	0.039891206	0.00084401574	0.00022745226
0.10348947	0.036771301	0.00077362027	0.00022745834
0.1036864	0.043243244	0.00091249857	0.00022745226
0.10388333	0.039479587	0.00083120138	0.00022745226
0.10408027	0.044084571	0.00092955661	0.00022746121
0.10427721	0.047533631	0.0010013256	0.00022745226
0.10447414	0.049349483	0.0010402183	0.00022745226
0.10467108	0.046791445	0.00098146987	0.00022745226
0.10486801	0.038444344	0.00080771762	0.00022745226
0.10506494	0.054101996	0.0011338009	0.00022745512
0.10526188	0.061024498	0.0012824843	0.00022745226
0.10545882	0.067144133	0.0014148887	0.00022744617
0.10565575	0.064244576	0.0013464345	0.00022745226
0.10585269	0.053730018	0.0011266216	0.00022745226
0.10604962	0.055212013	0.0011553748	0.00022745512
0.10624656	0.062831856	0.001316781	0.00022744617
0.10644349	0.058693733	0.0012277833	0.00022744617
0.10664043	0.061646853	0.001288401	0.00022745226
0.10683736	0.078726225	0.0016505215	0.00022744617
0.1070343	0.065140843	0.0013606705	0.00022744904
0.10723124	0.059466548	0.0012385658	0.00022744617
0.10742817	0.058590308	0.0012250278	0.00022744617
0.1076251	0.055097613	0.0011426241	0.00022744617
0.10782204	0.0610989	0.0012753803	0.00022744617
0.10801897	0.043725405	0.00090920553	0.00022744904
0.10821591	0.056455143	0.0011762006	0.00022744617
0.10841285	0.050566696	0.0010510409	0.00022744617
0.10860978	0.047165729	0.00097591727	0.00022744009
0.10880671	0.0452151	0.00094248989	0.00022744009
0.10900365	0.046180405	0.00095476455	0.00022744904
0.10920059	0.045827929	0.00094816263	0.00022744009
0.10939752	0.037744034	0.00078148831	0.00022744009
0.10959446	0.043196544	0.00089284824	0.00022744009
0.10979139	0.047350131	0.00098198093	0.00022744009
0.10998832	0.047578227	0.00098031422	0.00022744296
0.11018527	0.055196207	0.0011415345	0.00022744009
0.1103822	0.043515727	0.00089869538	0.00022744009
0.11057913	0.054935623	0.0011331799	0.00022743401
0.11077607	0.058519792	0.0012089034	0.00022744009
0.110973	0.061328791	0.0012605409	0.00022743687
0.11116994	0.052586574	0.0010824788	0.00022743401
0.11136688	0.050107066	0.0010323443	0.00022743401
0.11156381	0.048915356	0.0010043434	0.00022743401
0.11176074	0.045299146	0.0009315458	0.00022743401
0.11195768	0.048346058	0.00099090487	0.00022744296
0.11215462	0.058999572	0.001215051	0.00022743401
0.11235155	0.069185056	0.0014209063	0.00022743401
0.11254849	0.060363021	0.0012353769	0.00022743401
0.11274542	0.069009311	0.0014152803	0.00022743401
0.11294235	0.062367417	0.0012799277	0.00022743687
0.11313929	0.064325012	0.0013186703	0.00022743401
0.11333623	0.072177924	0.0014737241	0.00022743401
0.11353316	0.071035944	0.0014560362	0.00022742792
0.1137301	0.07016807	0.0014337763	0.00022743401
0.11392703	0.072803348	0.0014846309	0.00022743079
0.11412397	0.077698447	0.0015877925	0.00022742792
0.1143209	0.090374105	0.0018482291	0.00022742792
0.11451784	0.091670156	0.0018706758	0.00022742792
0.11471477	0.10616869	0.002170007	0.00022742792
0.11491171	0.14291632	0.0029042726	0.00022743079
0.11510865	0.22203673	0.0045312596	0.00022742792
0.11530558	0.33721897	0.0068752202	0.00022742792
0.11550251	0.57130909	0.011677862	0.00022742792
0.11569945	1.0049731	0.020450927	0.00022742792
0.11589638	1.6810095	0.034182839	0.00022743079
0.11609332	2.8362961	0.057655729	0.00022742792
0.11629026	4.263659	0.086726584	0.00022742792
0.11648719	6.0566349	0.12312333	0.00022742184
0.11668412	7.9971099	0.16247375	0.00022742184
0.11688106	9.8065453	0.19956809	0.00022742471
0.117078	11.162829	0.22633182	0.00022742184
0.11727493	12.501432	0.25290531	0.00022742184
0.11747187	13.054032	0.26408911	0.00022742184
0.1176688	13.157851	0.26641077	0.00022742184
0.11786573	12.747525	0.25890306	0.00022742471
0.11806267	11.910576	0.24066912	0.00022742184
0.11825961	11.289636	0.22849594	0.00022742184
0.11845654	10.317924	0.20776674	0.00022742184
0.11865348	9.5502644	0.19265755	0.00022742184
0.11885041	8.6972551	0.176018	0.00022741863
0.11904735	7.459919	0.15008233	0.00022741576
0.11924428	6.4617577	0.13031077	0.00022741576
0.11944122	5.584547	0.11229564	0.00022741576
0.11963815	4.6340375	0.093367971	0.00022741576
0.11983509	3.6376054	0.072890058	0.00022741863
0.12003203	2.9107432	0.058477536	0.00022741576
0.12022896	2.2125154	0.044584025	0.00022741576
0.12042589	1.5874494	0.03193073	0.00022741576
0.12062283	1.0717435	0.021448806	0.00022741576
0.12081976	0.72242278	0.014462433	0.00022741863
0.1210167	0.49759999	0.0099470103	0.00022741576
0.12121364	0.39378029	0.0079089049	0.00022740968
0.12141057	0.3245509	0.0064799166	0.00022740968
0.1216075	0.28559968	0.0057152156	0.00022741576
0.12180444	0.24840765	0.0049516158	0.00022741254
0.12200138	0.21402949	0.0042683966	0.00022740968
0.12219831	0.20487221	0.0040897643	0.00022741576
0.12239525	0.19445544	0.003865506	0.00022741576
0.12259218	0.17898522	0.0035729208	0.00022740968
0.12278911	0.16713092	0.0033293655	0.00022741254
0.12298606	0.15488483	0.0030820987	0.00022740968
0.12318299	0.15993665	0.0031777839	0.00022740968
0.12337992	0.13613182	0.0026919039	0.00022740968
0.12357686	0.13288377	0.0026423275	0.00022740968
0.12377379	0.15448439	0.0030664797	0.00022740646
0.12397073	0.1302803	0.0025844721	0.00022740968
0.12416767	0.12136685	0.0024009768	0.00022740359
0.1243646	0.10384013	0.0020511749	0.00022740359
0.12456153	0.11041009	0.0021880325	0.00022740359
0.12475847	0.093260191	0.0018419608	0.00022740646
0.12495541	0.10428965	0.0020644513	0.00022739463
0.12515233	0.097341672	0.0019203336	0.00022740323
0.12534928	0.10665628	0.0021002037	0.00022739751
0.12554622	0.087993741	0.0017357902	0.00022739751
0.12574315	0.091721728	0.0018041542	0.00022739751
0.12594008	0.080500193	0.0015869889	0.00022739751
0.12613702	0.085891955	0.0016891622	0.00022740968
0.12633395	0.092007801	0.0018126352	0.00022740968
0.12653089	0.078621224	0.001543135	0.00022739751
0.12672782	0.081530139	0.0015985694	0.00022739751
0.12692475	0.075934581	0.0014940633	0.00022739751
0.12712169	0.075038284	0.001464116	0.00022740323
0.12731864	0.076982893	0.0015138283	0.00022739751
0.12751557	0.07079646	0.0013844058	0.00022739751
0.1277125	0.065769233	0.0012855143	0.00022739751
0.12790944	0.076477401	0.0014987483	0.00022739751
0.12810637	0.065743946	0.0012848616	0.00022739751
0.1283033	0.071674973	0.0013990219	0.00022739751
0.12850024	0.07205826	0.0014068115	0.00022739751
0.12869717	0.074569792	0.0014543063	0.00022738535
0.12889411	0.05800999	0.0011328094	0.00022739751
0.12909104	0.062761508	0.0012198424	0.00022740323
0.12928799	0.060966257	0.0011898532	0.00022739751
0.12948492	0.065555133	0.0012720556	0.00022739751
0.12968186	0.059992358	0.0011685335	0.00022738535
0.12987879	0.057501905	0.0011181552	0.00022738535
0.13007572	0.072266363	0.001401762	0.00022738535
0.13027266	0.062785387	0.0012205387	0.00022738535
0.13046959	0.059712775	0.0011568192	0.00022738535
0.13066652	0.058399696	0.0011333324	0.00022738535
0.13086346	0.060113423	0.0011645996	0.00022739751
0.13106039	0.048762191	0.0009405943	0.00022740323
0.13125734	0.059695818	0.001159879	0.00022738535
0.13145427	0.056348611	0.0010883104	0.00022738535
0.13165121	0.053483993	0.0010343646	0.00022738535
0.13184814	0.058448859	0.0011273818	0.00022738535
0.13204508	0.060015004	0.0011582724	0.00022738535
0.13224201	0.060045317	0.0011625281	0.00022738535
0.13243894	0.055680119	0.0010724547	0.00022738535
0.13263588	0.053651266	0.0010314301	0.00022738535
0.13283281	0.064697079	0.0012466559	0.00022738535
0.13302974	0.060254492	0.0011617986	0.00022739106
0.13322669	0.053731345	0.0010340924	0.00022738535
0.13342363	0.059303187	0.0011378585	0.00022738535
0.13362056	0.060527291	0.0011625533	0.00022738535
0.13381749	0.049571376	0.0009529402	0.00022737318
0.13401443	0.050967261	0.00097916706	0.00022737318
0.13421136	0.0567718	0.0010900219	0.00022738535
0.1344083	0.059690494	0.001142008	0.00022737318
0.13460523	0.056171469	0.0010759463	0.00022737318
0.13480216	0.04907063	0.00094232144	0.00022737318
0.1349991	0.042592593	0.00081583834	0.0002273789
0.13519605	0.043414813	0.00082537561	0.00022737318
0.13539298	0.05479452	0.0010503726	0.00022737318
0.13558991	0.055311356	0.0010546324	0.00022737318
0.13578685	0.056596838	0.0010813443	0.00022737318
0.13598378	0.051263273	0.00097711373	0.00022737318
0.13618071	0.050810013	0.00097108062	0.00022737318
0.13637765	0.047967777	0.00091432856	0.00022737318
0.13657458	0.04859335	0.00092498021	0.00022737318
0.13677152	0.05174927	0.00098415022	0.00022737318
0.13696845	0.043241277	0.00082043133	0.00022737318
0.13716538	0.048922963	0.00093094847	0.0002273789
0.13736233	0.048664473	0.00092701183	0.00022737318
0.13755926	0.04696532	0.00088907918	0.00022737318
0.1377562	0.052075747	0.00099012651	0.00022737318
0.13795313	0.048621189	0.00092229526	0.00022736102
0.13815007	0.052726615	0.00099841424	0.00022736102
0.138347	0.049673676	0.00094171718	0.00022737318
0.13854393	0.04496403	0.00084919733	0.00022737318
0.13874087	0.049090911	0.00093256508	0.00022736102
0.1389378	0.04801444	0.00090870529	0.00022736102
0.13913473	0.040845577	0.00076953316	0.00022736673
0.13933168	0.03774263	0.00071189337	0.00022737318
0.13952862	0.049551167	0.00093486556	0.00022737318
0.13972555	0.045421511	0.00086196919	0.00022736102
0.13992248	0.042765502	0.00080364931	0.00022736102
0.14011942	0.046611689	0.0008788454	0.00022736102
0.14031635	0.038268957	0.00071983592	0.00022737318
0.14051329	0.049589727	0.0009328631	0.00022736102
0.14071022	0.044133477	0.00083250942	0.00022736102
0.14090715	0.046066619	0.00086347316	0.00022736102
0.14110409	0.037843626	0.00071141205	0.00022736673
0.14130104	0.04253038	0.00080016599	0.00022736102
0.14149797	0.042168673	0.0007902605	0.00022736102
0.1416949	0.045760907	0.00085821765	0.00022734885
0.14189184	0.042756185	0.00080014911	0.00022736102
0.14208877	0.035	0.00065782579	0.00022736102
0.1422857	0.038284298	0.00071703049	0.00022736102
0.14248264	0.035451036	0.00066099508	0.00022736102
0.14267957	0.037588652	0.00070391671	0.00022736102
0.14287651	0.046397187	0.00086616195	0.00022736102
0.14307344	0.037862703	0.00070865289	0.00022735457
0.14327039	0.044624034	0.00083295401	0.00022736102
0.14346732	0.039760731	0.0007421879	0.00022734885
0.14366426	0.035451036	0.00066047133	0.00022734885
0.14386119	0.042471044	0.00079226645	0.00022736102
0.14405812	0.042732049	0.00079584273	0.00022734885
0.14425506	0.041506801	0.00077167089	0.00022734885
0.14445199	0.036127675	0.000673312	0.00022734885
0.14464892	0.046683047	0.00087067118	0.00022734885
0.14484586	0.049356967	0.00091646425	0.00022734885
0.14504279	0.043235704	0.00080368423	0.00022735457
0.14523974	0.044920526	0.00083144713	0.00022734885
0.14543667	0.046299543	0.00086142664	0.00022733668
0.14563361	0.041305102	0.00076331693	0.00022734885
0.14583054	0.044143204	0.00081788411	0.00022734885
0.14602748	0.041508127	0.00076641428	0.00022734885
0.14622441	0.036690898	0.00067939662	0.00022733668
0.14642134	0.040082932	0.00074127869	0.00022734885
0.14661828	0.034435261	0.00063552713	0.00022733668
0.14681521	0.03778163	0.00069987954	0.00022733668
0.14701214	0.039323904	0.0007268723	0.0002273424
0.14720909	0.036169481	0.00066778553	0.00022733668
0.14740603	0.036194414	0.00066847628	0.00022733668
0.14760296	0.036444142	0.00066925742	0.00022733668
0.14779989	0.039614193	0.0007320476	0.00022733668
0.14799683	0.035480537	0.0006551753	0.00022733668
0.14819376	0.040865384	0.00075385079	0.00022733668
0.1483907	0.042451214	0.00078190764	0.00022733668
0.14858763	0.037100069	0.0006810248	0.00022733668
0.14878456	0.036070079	0.00066527817	0.00022733668
0.1489815	0.039999999	0.00073324423	0.0002273424
0.14917845	0.035775129	0.00065683271	0.00022733668
0.14937538	0.03649386	0.00067080511	0.00022733668
0.14957231	0.039282087	0.00071949582	0.00022733668
0.14976925	0.043493152	0.00080118742	0.00022733668
0.14996618	0.037411526	0.00068316789	0.00022733668
0.15016311	0.034915254	0.00063927384	0.00022732452
0.15036005	0.032641958	0.00059873337	0.00022732452
0.15055698	0.036051214	0.00065851997	0.00022733668
0.15075392	0.037389532	0.00068602234	0.00022733668
0.15095085	0.040925864	0.00074292358	0.00022733024
0.1511478	0.040417649	0.00073620025	0.00022732452
0.15134473	0.040919852	0.00074682501	0.00022733668
0.15154167	0.039584033	0.00072178268	0.00022732452
0.1517386	0.037525356	0.00068662642	0.00022732452
0.15193553	0.033154722	0.00060339249	0.00022732452
0.15213247	0.030252101	0.00055109267	0.00022733668
0.1523294	0.034193765	0.00062267069	0.00022732452
0.15252633	0.028323893	0.00051399827	0.00022732452
0.15272327	0.033121444	0.00060267071	0.00022732452
0.1529202	0.034367699	0.0006245909	0.00022733024
0.15311715	0.035211269	0.0006414224	0.00022732452
0.15331408	0.038551014	0.00069960672	0.00022732452
0.15351102	0.034906916	0.00063335529	0.00022732452
0.15370795	0.031281199	0.00056749478	0.00022731235
0.15390489	0.037936773	0.00068880268	0.00022732452
0.15410182	0.038372479	0.0006945433	0.00022732452
0.15429875	0.035548173	0.0006448974	0.00022732452
0.15449569	0.032536522	0.00058960344	0.00022731235
0.15469262	0.043017868	0.00077941216	0.00022731235
0.15488955	0.034255598	0.00061840104	0.00022731809
0.1550865	0.027338604	0.00049281243	0.00022732452
0.15528344	0.033134528	0.00059997779	0.00022731235
0.15548037	0.039417025	0.00071427925	0.00022731235
0.1556773	0.039672133	0.00071524549	0.00022731235
0.15587424	0.038879737	0.00070245034	0.00022731235
0.15607117	0.032963447	0.00059235672	0.00022731235
0.1562681	0.036597427	0.00066131342	0.00022731235
0.15646504	0.035808146	0.00064570503	0.00022732452
0.15666197	0.032701112	0.00058818364	0.00022731235
0.15685891	0.036940176	0.00066462293	0.00022731809
0.15705585	0.030995106	0.00055674493	0.00022731235
0.15725279	0.038310412	0.00068977132	0.00022731235
0.15744972	0.036736019	0.00065896375	0.00022731235
0.15764666	0.031901043	0.00057211117	0.00022731235
0.15784359	0.035737704	0.00064374565	0.00022731235
0.15804052	0.036640726	0.00065634918	0.00022731235
0.15823746	0.0342131	0.00061411376	0.00022731235
0.15843439	0.031873792	0.00056864333	0.00022731235
0.15863132	0.031128405	0.00055714377	0.00022730019
0.15882826	0.030293159	0.00054336555	0.00022731809
0.15902521	0.029411765	0.00052548485	0.00022730019
0.15922214	0.030126337	0.00053907209	0.00022730019
0.15941907	0.031430405	0.00055949605	0.00022731235
0.15961601	0.038847525	0.00069552351	0.00022730019
0.15981294	0.033805538	0.00060328265	0.00022730019
0.16000988	0.034771409	0.00062052277	0.00022730019
0.16020681	0.032850243	0.0005860462	0.00022730019
0.16040374	0.038794484	0.00069121114	0.00022730019
0.16060068	0.037395228	0.00066817785	0.00022730019
0.16079761	0.03508772	0.00062333822	0.00022730592
0.16099456	0.03508772	0.00062328612	0.00022730019
0.16119149	0.036047634	0.00064324128	0.00022730019
0.16138843	0.03773585	0.00067157845	0.00022730019
0.16158536	0.033963472	0.0006042982	0.00022730019
0.16178229	0.034318399	0.00060843455	0.00022728802
0.16197923	0.041161455	0.00073185615	0.00022728802
0.16217616	0.035918627	0.00063699001	0.00022728802
0.1623731	0.037886024	0.00067263475	0.00022728802
0.16257003	0.038400508	0.00068066048	0.00022728802
0.16276696	0.040025413	0.00070970418	0.00022730592
0.16296391	0.034307498	0.00060793367	0.00022728802
0.16316085	0.038595382	0.00068315899	0.00022730019
0.16335778	0.037329961	0.00066048355	0.00022728802
0.16355471	0.037503939	0.00066248403	0.00022728802
0.16375165	0.035506777	0.00063411536	0.00022728802
0.16394858	0.034009155	0.00061139569	0.00022728802
0.16414551	0.03297421	0.00059182401	0.00022728802
0.16434245	0.035029743	0.00063320919	0.00022728802
0.16453938	0.033577129	0.00060837338	0.00022728802
0.16473632	0.037420649	0.00068017922	0.00022729376
0.16493326	0.028638814	0.00052105571	0.00022728802
0.1651302	0.03052667	0.0005554448	0.00022727586
0.16532713	0.027017783	0.00049623451	0.00022728802
0.16552407	0.034529451	0.00063155632	0.00022727586
0.165721	0.031186441	0.00057033735	0.00022728802
0.16591793	0.033985581	0.00062570104	0.00022727586
0.16611487	0.03188207	0.00058640173	0.00022727586
0.1663118	0.034722224	0.0006432283	0.00022728802
0.16650873	0.032657269	0.00060104911	0.00022728802
0.16670567	0.032380298	0.00059712119	0.00022728159
0.16690262	0.036123656	0.00066936214	0.00022727586
0.16709955	0.031347964	0.00058087369	0.00022727586
0.16729648	0.036516853	0.00068044924	0.00022727586
0.16749342	0.028551532	0.00052888243	0.00022727586
0.16769035	0.037425674	0.00069623307	0.00022727586
0.16788729	0.042725988	0.00079908106	0.00022727586
0.16808422	0.032336578	0.00059912767	0.00022727586
0.16828115	0.031526744	0.00058967673	0.00022727586
0.16847809	0.036880929	0.00068739813	0.00022726369
0.16867502	0.03366762	0.00063323148	0.00022728159
0.16887197	0.037247252	0.00069728203	0.00022727586
0.1690689	0.028954802	0.00053996523	0.00022726369
0.16926584	0.035536602	0.00066585792	0.00022727586
0.16946277	0.037749287	0.00070837059	0.00022727586
0.1696597	0.030564545	0.00057570433	0.00022726369
0.16985664	0.028143926	0.00052741356	0.00022726369
0.17005357	0.0314398	0.0005902868	0.00022727586
0.17025051	0.031620555	0.00059515133	0.00022726369
0.17044744	0.02474005	0.00046454527	0.00022726369
0.17064437	0.033153154	0.0006250618	0.00022726943
0.17084132	0.029157666	0.00054928492	0.00022727586
0.17103826	0.040437158	0.00076802314	0.00022726369
0.17123519	0.033659067	0.00063618523	0.00022726369
0.17143212	0.033849478	0.00063836959	0.00022726369
0.17162906	0.034382917	0.00064975716	0.00022726369
0.17182599	0.021652833	0.00040750593	0.00022726369
0.17202292	0.025773196	0.00049057888	0.00022726369
0.17221986	0.034119781	0.00064558786	0.00022726369
0.17241679	0.032446228	0.00061503396	0.00022726369
0.17261373	0.025154939	0.00047617935	0.00022725726
0.17281067	0.027302511	0.0005172526	0.00022726369
0.17300761	0.033749081	0.00064222346	0.00022726369
0.17320454	0.036443148	0.00069199211	0.00022725153
0.17340147	0.028064992	0.00053575769	0.00022725153
0.17359841	0.031699225	0.00060490298	0.00022725153
0.17379534	0.025706941	0.00048889092	0.00022726369
0.17399228	0.033370003	0.00063460489	0.00022726369
0.17418921	0.031891495	0.00060669909	0.00022725153
0.17438614	0.030145144	0.00057733781	0.00022725153
0.17458308	0.033923306	0.00064704841	0.00022725726
0.17478003	0.024065161	0.00045922631	0.00022725153
0.17497696	0.032902032	0.00062860409	0.00022725153
0.17517389	0.040778838	0.00077758782	0.00022725153
0.17537083	0.029224429	0.00056139939	0.00022723936
0.17556776	0.026218612	0.00049935549	0.00022723936
0.17576469	0.025335321	0.00048487113	0.00022723936
0.17596163	0.034379672	0.00065999269	0.00022725153
0.17615856	0.031910945	0.00061063946	0.00022725153
0.1763555	0.037588388	0.00072088587	0.00022725153
0.17655243	0.028210839	0.00053946592	0.00022724509
0.17674938	0.030428249	0.00058576261	0.00022723936
0.17694631	0.037495311	0.00072166801	0.00022723936
0.17714325	0.026936026	0.00051705667	0.00022725153
0.17734018	0.027412692	0.00052715576	0.00022723936
0.17753711	0.029007066	0.00055551756	0.00022723936
0.17773405	0.034936137	0.00067258009	0.00022723936
0.17793098	0.029811321	0.00057516427	0.00022723936
0.17812791	0.033395872	0.00064256461	0.00022723936
0.17832485	0.030838661	0.00059369631	0.00022723936
0.17852178	0.027098231	0.00052132568	0.00022724509
0.17871873	0.029445074	0.00056795956	0.00022723936
0.17891566	0.028592927	0.00055027055	0.00022723936
0.1791126	0.0355119	0.00068597606	0.00022722721
0.17930953	0.025292562	0.00048727798	0.00022723936
0.17950647	0.031463228	0.00060828205	0.00022723936
0.1797034	0.03137996	0.00060613628	0.00022723936
0.17990033	0.029045643	0.00055998162	0.00022723936
0.18009727	0.027756654	0.00053690502	0.00022722721
0.1802942	0.029912911	0.00057754328	0.00022722721
0.18049113	0.034060467	0.00066201261	0.00022723294
0.18068808	0.037893143	0.00073377899	0.00022722721
0.18088502	0.038272072	0.000740572	0.00022722721
0.18108195	0.036204267	0.00070222834	0.00022722721
0.18127888	0.03876853	0.00075115362	0.00022722721
0.18147582	0.0370229	0.00071885088	0.00022722721
0.18167275	0.031866465	0.00061628502	0.00022722721
0.18186969	0.03256705	0.00063338416	0.00022722721
0.18206662	0.023773005	0.00046121961	0.00022722721
0.18226355	0.027630582	0.000533149	0.00022721505
0.18246049	0.026467204	0.000514257	0.00022723294
0.18265744	0.030164184	0.00058531255	0.00022721505
0.18285437	0.030745581	0.00059850584	0.00022722721
0.1830513	0.022316275	0.00043364181	0.00022722721
0.18324824	0.027428571	0.00053130527	0.00022721505
0.18344517	0.03151422	0.00061368395	0.00022721505
0.1836421	0.023006136	0.00044617912	0.00022721505
0.18383904	0.026538461	0.00051600463	0.00022721505
0.18403597	0.02959262	0.00057528401	0.00022721505
0.18423291	0.025779147	0.00050118141	0.00022721505
0.18442984	0.026346378	0.0005139609	0.00022722078
0.18462679	0.026457055	0.00051363191	0.00022721505
0.18482372	0.022367913	0.00043501609	0.00022721505
0.18502066	0.028055342	0.0005454917	0.00022721505
0.18521759	0.027068833	0.00052814698	0.00022721505
0.18541452	0.029047251	0.00056731759	0.00022721505
0.18561146	0.028924026	0.00056350732	0.00022721505
0.18580839	0.031225907	0.00060904311	0.00022721505
0.18600532	0.032133177	0.00062800088	0.00022720288
0.18620226	0.03104385	0.00060704484	0.00022721505
0.18639919	0.040666152	0.00079605426	0.00022722078
0.18659614	0.034496125	0.00067475624	0.00022720288
0.18679307	0.037441496	0.00073514244	0.00022720288
0.18699001	0.031310398	0.00061132805	0.00022720288
0.18718694	0.026837807	0.0005250973	0.00022720288
0.18738388	0.034946237	0.00068001769	0.00022720288
0.18758081	0.034131031	0.00067154394	0.00022721505
0.18777774	0.02837155	0.00055495283	0.00022720288
0.18797468	0.033878505	0.00066401495	0.00022720288
0.18817161	0.027669525	0.00054214511	0.00022719071
0.18836854	0.026702786	0.00052091666	0.00022720861
0.18856549	0.017702596	0.00034708454	0.00022719071
0.18876243	0.021798365	0.00042574445	0.00022720288
0.18895936	0.025730994	0.00050335092	0.00022720288
0.18915629	0.031262212	0.00061355915	0.00022719071
0.18935323	0.02538071	0.00049691839	0.00022719071
0.18955016	0.026677128	0.00052413199	0.00022720288
0.1897471	0.029926157	0.00058543996	0.00022719071
0.18994403	0.028560251	0.00056060613	0.00022720288
0.19014096	0.021268215	0.00041794832	0.00022719071
0.1903379	0.034643829	0.00067926897	0.00022719646
0.19053484	0.034265459	0.00067560625	0.00022719071
0.19073178	0.033878505	0.00066428178	0.00022719071
0.19092871	0.029110936	0.00057305599	0.00022719071
0.19112565	0.029249012	0.0005770314	0.00022719071
0.19132258	0.028059237	0.00054898259	0.00022719071
0.19151951	0.024812918	0.00048810407	0.00022719071
0.19171645	0.031814612	0.00062634982	0.00022719071
0.19191338	0.027176054	0.00053494261	0.00022717856
0.19211031	0.029411765	0.00057813572	0.00022719071
0.19230725	0.031802122	0.00062540034	0.00022719646
0.1925042	0.034537517	0.00068357785	0.00022719071
0.19270113	0.029897718	0.00058805756	0.00022719071
0.19289806	0.028751478	0.00056624663	0.00022719071
0.193095	0.028985508	0.00056872191	0.00022717856
0.19329193	0.026200874	0.0005173242	0.00022719071
0.19348887	0.028481012	0.0005618498	0.00022717856
0.1936858	0.027133306	0.00053402263	0.00022717856
0.19388273	0.031176006	0.00061481254	0.00022717856
0.19407967	0.03283228	0.00064870459	0.00022717856
0.1942766	0.024711041	0.00048891857	0.0002271843
0.19447355	0.026212832	0.00051469868	0.00022717856
0.19467048	0.028537456	0.00056341046	0.00022717856
0.19486742	0.026503164	0.00052291952	0.0002271664
0.19506435	0.03218117	0.00063691183	0.0002271664
0.19526128	0.030315118	0.00060126215	0.0002271664
0.19545822	0.030552292	0.00060029846	0.0002271664
0.19565515	0.03404085	0.00067667803	0.0002271664
0.19585209	0.027777778	0.00054857804	0.0002271664
0.19604902	0.034441806	0.00068092026	0.0002271664
0.19624595	0.034262948	0.00067929568	0.00022717213
0.1964429	0.029550828	0.00058224134	0.00022717856
0.19663984	0.025641026	0.00050880242	0.0002271664
0.19683677	0.03160806	0.00062416564	0.0002271664
0.1970337	0.024361022	0.00048239258	0.0002271664
0.19723064	0.030194676	0.000597367	0.0002271664
0.19742757	0.025019856	0.00049422373	0.0002271664
0.1976245	0.024086712	0.00047798463	0.00022715423
0.19782144	0.034441806	0.00068092026	0.0002271664
0.19801837	0.031549521	0.00062630308	0.0002271664
0.19821531	0.028320702	0.00056139822	0.00022715998
0.19841225	0.027866242	0.00055165886	0.0002271664
0.19860919	0.028422737	0.00056363881	0.00022715423
0.19880612	0.02457392	0.00048485419	0.00022715423
0.19900306	0.023321271	0.00046284485	0.00022715423
0.19919999	0.021140806	0.00041800292	0.00022715423
0.19939692	0.023904383	0.0004725669	0.00022715423
0.19959386	0.020967742	0.00041690102	0.0002271664
0.19979079	0.027468152	0.00054359157	0.00022715423
0.19998772	0.028456913	0.0005652259	0.00022715423
0.20018466	0.02830941	0.00056117546	0.00022715998
0.20038161	0.03256936	0.00064887345	0.00022715423
0.20057854	0.024009604	0.00047569096	0.00022715423
0.20077547	0.027167398	0.00053781917	0.00022715423
0.20097241	0.03221909	0.00064184546	0.00022715423
0.20116934	0.028354632	0.00056195416	0.00022715423
0.20136628	0.025352113	0.00050319626	0.00022714208
0.20156321	0.022417935	0.00044388196	0.00022715423
0.20176014	0.024989923	0.00049774646	0.00022714208
0.20195708	0.022818254	0.00045162215	0.00022715423
0.20215401	0.023666266	0.00047004965	0.00022715998
0.20235096	0.022553362	0.00044834835	0.00022714208
0.20254789	0.022008803	0.00043544831	0.00022714208
0.20274483	0.025557809	0.00051011983	0.00022714208
0.20294176	0.026810724	0.00053204951	0.00022714208
0.20313869	0.033144705	0.00066152832	0.00022714208
0.20333563	0.025858587	0.00051529263	0.00022714208
0.20353256	0.028673835	0.00056734326	0.00022712992
0.2037295	0.030869212	0.00061738997	0.00022712992
0.20392643	0.021225471	0.00042021112	0.00022714208
0.20412336	0.028003247	0.00055883749	0.00022714782
0.20432031	0.02337767	0.00046466608	0.00022714208
0.20451725	0.020048115	0.00039716469	0.00022714208
0.20471418	0.020714866	0.0004124791	0.00022712992
0.20491111	0.024790084	0.00049113639	0.00022714208
0.20510805	0.024380334	0.00048716599	0.00022712992
0.20530498	0.028271405	0.00056361855	0.00022712992
0.20550191	0.027699718	0.00055024575	0.00022712992
0.20569885	0.027346939	0.00054809271	0.00022712992
0.20589578	0.025260625	0.00050098973	0.00022712992
0.20609272	0.030142566	0.0006034543	0.00022713565
0.20628966	0.028617494	0.00056944264	0.00022712992
0.2064866	0.027586207	0.00055103278	0.00022711777
0.20668353	0.02601626	0.00051975495	0.00022712992
0.20688047	0.022159548	0.00044022771	0.00022712992
0.2070774	0.02471637	0.00049217662	0.00022711777
0.20727433	0.031413611	0.00062586513	0.00022711777
0.20747127	0.021588596	0.00043119883	0.00022711777
0.2076682	0.019902518	0.00039640118	0.00022712992
0.20786513	0.025869038	0.00051496411	0.00022712992
0.20806207	0.018729642	0.00037315584	0.0002271235
0.20825902	0.022607993	0.00045012485	0.00022711777
0.20845595	0.021189895	0.00042354508	0.00022711777
0.20865288	0.021818181	0.00043411425	0.00022711777
0.20884982	0.022458145	0.00044946006	0.00022711777
0.20904675	0.024816925	0.00049627072	0.00022711777
0.20924369	0.030425964	0.00060797023	0.0002271056
0.20944062	0.027541514	0.00054933119	0.00022711777
0.20963755	0.021483583	0.00042774461	0.00022711777
0.20983449	0.020970395	0.00042096275	0.00022711777
0.21003142	0.029626623	0.0005919605	0.00022711133
0.21022837	0.024022801	0.0004801508	0.00022711777
0.2104253	0.033007335	0.00066180312	0.00022711777
0.21062224	0.02337767	0.00046480706	0.0002271056
0.21081917	0.02513391	0.00050539535	0.0002271056
0.2110161	0.025101215	0.00050054537	0.0002271056
0.21121304	0.024837134	0.00049646921	0.0002271056
0.21140997	0.033020791	0.00066169596	0.0002271056
0.2116069	0.031862747	0.0006388037	0.0002271056
0.21180384	0.028653296	0.00057448179	0.0002271056
0.21200077	0.023434343	0.00046607398	0.00022711133
0.21219772	0.027983539	0.00056261057	0.00022709343
0.21239465	0.02465078	0.00049445446	0.0002271056
0.21259159	0.0264013	0.0005268128	0.0002271056
0.21278852	0.025306122	0.00050601608	0.0002271056
0.21298546	0.023133118	0.00046158317	0.00022709343
0.21318239	0.024752475	0.00049780007	0.00022709343
0.21337932	0.03125	0.00062482606	0.00022709343
0.21357626	0.026563138	0.00053192163	0.0002271056
0.21377319	0.030127941	0.00060728262	0.0002271056
0.21397012	0.026862027	0.00053753331	0.00022709918
0.21416707	0.027789129	0.00055712485	0.00022709343
0.21436401	0.032613128	0.00065334648	0.00022709343
0.21456094	0.032046016	0.0006448619	0.00022709343
0.21475787	0.041050903	0.0008267301	0.00022708128
0.21495481	0.03351042	0.00067281327	0.00022709343
0.21515174	0.028267104	0.0005672407	0.00022709343
0.21534868	0.027015964	0.00054216123	0.00022708128
0.21554561	0.027583368	0.00055546832	0.00022709343
0.21574254	0.026552288	0.00053236482	0.00022708128
0.21593948	0.02510288	0.00050459779	0.00022709918
0.21613643	0.02545156	0.00051133346	0.00022708128
0.21633336	0.023780238	0.00047715544	0.00022708128
0.21653029	0.025883319	0.00051976414	0.00022708128
0.21672723	0.026519788	0.00053113181	0.00022709343
0.21692416	0.020206185	0.00040550926	0.00022708128
0.21712109	0.025462013	0.00051137758	0.00022708128
0.21731803	0.023408623	0.00046970727	0.00022708128
0.21751496	0.026759984	0.00053823536	0.00022708128
0.2177119	0.029735234	0.00059590029	0.00022708128
0.21790883	0.02866639	0.00057930354	0.00022708702
0.21810578	0.024918301	0.00049876852	0.00022708128
0.21830271	0.030165289	0.0006081803	0.00022708128
0.21849965	0.030864198	0.0006212666	0.00022706912
0.21869658	0.034779049	0.00069920358	0.00022708128
0.21889351	0.029436152	0.000594415	0.00022706912
0.21909045	0.028676772	0.00057578564	0.00022706912
0.21928738	0.028477095	0.00057394197	0.00022706912
0.21948431	0.027640264	0.00055668358	0.00022706912
0.21968125	0.029593095	0.00059554767	0.00022706912
0.21987818	0.023524556	0.00047305276	0.00022707487
0.22007513	0.031109292	0.00062471721	0.00022706912
0.22027206	0.029863127	0.00060312729	0.00022706912
0.220469	0.02914614	0.00058588729	0.00022706912
0.22066593	0.032284766	0.00065219175	0.00022705697
0.22086287	0.020584602	0.0004133842	0.00022705697
0.2210598	0.030902348	0.00062275626	0.00022705697
0.22125673	0.025651634	0.00051696453	0.00022705697
0.22145367	0.028099174	0.00056672504	0.00022705697
0.2216506	0.02768595	0.00055831752	0.00022706912
0.22184753	0.039094649	0.00078816805	0.00022707487
0.22204448	0.036929462	0.00074750202	0.00022705697
0.22224142	0.028465347	0.00057309674	0.00022705697
0.22243835	0.027628865	0.00055596081	0.00022705697
0.22263528	0.025290215	0.0005099781	0.00022705697
0.22283222	0.023848685	0.00047921727	0.00022704482
0.22302915	0.021648627	0.00043704468	0.00022705697
0.22322609	0.025609253	0.00051609363	0.00022704482
0.22342302	0.018906699	0.0003788273	0.00022704482
0.22361995	0.022831051	0.00046070249	0.00022705697
0.22381689	0.01734104	0.00034821304	0.0002270627
0.22401384	0.026722338	0.00054079079	0.00022704482
0.22421077	0.028395062	0.00057182933	0.00022704482
0.2244077	0.026915114	0.00054318464	0.00022704482
0.22460464	0.02247191	0.00045409086	0.00022704482
0.22480157	0.021355236	0.0004280273	0.00022704482
0.2249985	0.029769393	0.00060478266	0.00022704482
0.22519544	0.025	0.00050149852	0.00022704482
0.22539237	0.024116425	0.00048686808	0.00022704482
0.22558931	0.027185278	0.00055072067	0.00022704482
0.22578624	0.024928484	0.00049948459	0.00022703838
0.22598319	0.025406081	0.00051348726	0.00022703265
0.22618012	0.022323275	0.00044880572	0.00022704482
0.22637706	0.023440771	0.00047491799	0.00022704482
0.22657399	0.026108578	0.00052629446	0.00022703265
0.22677092	0.029850746	0.00060310692	0.00022703265
0.22696786	0.024875622	0.0005018044	0.00022703265
0.22716479	0.028985508	0.00058511028	0.00022704482
0.22736172	0.030531159	0.00061963452	0.00022703265
0.22755866	0.030991735	0.00062534772	0.00022703265
0.22775559	0.02507313	0.00050750579	0.00022703265
0.22795253	0.024461029	0.00049335079	0.00022703838
0.22814947	0.02616279	0.00052874844	0.00022703265
0.22834641	0.037728027	0.00076356786	0.00022703265
0.22854334	0.025758205	0.0005206035	0.0002270205
0.22874027	0.02059689	0.00041732888	0.00022703265
0.22893721	0.026000826	0.00052371115	0.00022703265
0.22913414	0.022046588	0.00044499483	0.0002270205
0.22933108	0.023255814	0.00046884915	0.0002270205
0.22952801	0.029178824	0.00059072912	0.0002270205
0.22972494	0.025822574	0.0005222797	0.0002270205
0.22992188	0.029436152	0.00059465476	0.00022703838
0.23011883	0.029163145	0.00059430161	0.0002270205
0.23031576	0.022295624	0.00044812917	0.0002270205
0.23051269	0.024136497	0.00048777182	0.0002270205
0.23070963	0.02125	0.00042924259	0.0002270205
0.23090656	0.018656716	0.00037495361	0.00022700834
0.23110349	0.030201342	0.00061364449	0.00022700834
0.23130043	0.021693785	0.00043874429	0.0002270205
0.23149736	0.033277869	0.00067406741	0.0002270205
0.2316943	0.022556391	0.00045617501	0.0002270205
0.23189123	0.02739726	0.00055316387	0.00022701408
0.23208818	0.026823135	0.00054426002	0.00022700834
0.23228511	0.028309742	0.00057273021	0.00022700834
0.23248205	0.027162557	0.00055003027	0.00022700834
0.23267898	0.024298282	0.00049283425	0.00022700834
0.23287591	0.022859517	0.00046109743	0.00022700834
0.23307285	0.021329988	0.00043115986	0.00022700834
0.23326978	0.03002502	0.00060791982	0.00022700834
0.23346671	0.023372287	0.00047206829	0.00022700834
0.23366365	0.023549201	0.00047775058	0.00022700834
0.23386058	0.0221202	0.00044771333	0.00022701408
0.23405753	0.021882741	0.0004400427	0.00022699618
0.23425446	0.018931426	0.00038384928	0.00022700834
0.2344514	0.025167786	0.00051067205	0.00022699618
0.23464833	0.023401588	0.00047341923	0.00022699618
0.23484527	0.023829432	0.00048212826	0.00022700834
0.2350422	0.026337793	0.0005337894	0.00022700834
0.23523913	0.030239396	0.00061516627	0.00022699618
0.23543607	0.026228143	0.00053059508	0.00022699618
0.235633	0.019648829	0.0003968002	0.00022699618
0.23582993	0.026392963	0.0005354677	0.00022700192
0.23602688	0.024	0.00048777429	0.00022698403
0.23622382	0.033347227	0.00067628332	0.00022699618
0.23642075	0.025876461	0.00052405446	0.00022699618
0.23661768	0.026823135	0.00054385385	0.00022698403
0.23681462	0.015993265	0.00032313631	0.00022698403
0.23701155	0.01671542	0.00033682337	0.00022699618
0.23720849	0.024227235	0.00049007923	0.00022698403
0.23740542	0.019731319	0.00039967248	0.00022699618
0.23760235	0.017610064	0.00035551988	0.00022698403
0.23779929	0.021839563	0.00044082728	0.00022698977
0.23799624	0.021285476	0.00042964151	0.00022698403
0.23819317	0.029424127	0.0005984435	0.00022698403
0.2383901	0.021410579	0.00043292274	0.00022698403
0.23858704	0.024298282	0.00049193791	0.00022698403
0.23878397	0.028499581	0.00057862885	0.00022698403
0.2389809	0.026845638	0.00054521603	0.00022697187
0.23917784	0.022278268	0.00045235732	0.00022697187
0.23937477	0.026537489	0.00053973414	0.00022698403
0.23957171	0.021356784	0.00043214276	0.00022697187
0.23976864	0.022101751	0.00044666626	0.00022697762
0.23996559	0.021052632	0.00042756458	0.00022697187
0.24016252	0.019458545	0.00039476927	0.00022697187
0.24035946	0.027694929	0.00056696485	0.00022697187
0.24055639	0.021132713	0.00042947958	0.00022697187
0.24075332	0.016609881	0.00033774468	0.00022697187
0.24095026	0.013728014	0.00027992108	0.00022697187
0.24114719	0.015744681	0.00031995555	0.00022697187
0.24134412	0.02869379	0.00058841665	0.00022697187
0.24154106	0.021570319	0.00044252767	0.00022697187
0.24173799	0.019853259	0.00040763349	0.00022696547
0.24193494	0.01953125	0.00040162803	0.00022697187
0.24213187	0.022375215	0.00045888693	0.00022695972
0.24232881	0.027547006	0.00057097437	0.00022697187
0.24252574	0.019676432	0.00040611514	0.00022695972
0.24272268	0.027074236	0.00056026963	0.00022695972
0.24291961	0.022457067	0.00046596973	0.00022695972
0.24311654	0.024804177	0.00051201542	0.00022695972
0.24331348	0.023545092	0.00049131212	0.00022695972
0.24351041	0.023809524	0.00049506506	0.00022695972
0.24370734	0.027728872	0.0005763431	0.00022696547
0.24390429	0.026245551	0.00054799847	0.00022695972
0.24410123	0.023255814	0.00048495576	0.00022695972
0.24429816	0.022202486	0.00046231586	0.00022694757
0.24449509	0.02329831	0.00049240037	0.00022694757
0.24469203	0.019354839	0.00041013051	0.00022695972
0.24488896	0.020149954	0.00043047348	0.00022694757
0.2450859	0.02209685	0.00047389022	0.00022694757
0.24528283	0.021296734	0.00045753794	0.00022694757
0.24547976	0.022889843	0.00049429946	0.00022694757
0.2456767	0.022617903	0.00049007108	0.0002269533
0.24587364	0.017316017	0.00037425107	0.00022694757
0.24607058	0.018941233	0.00041130514	0.0002269354
0.24626751	0.014050388	0.0003028365	0.00022694757
0.24646445	0.019202363	0.00041955683	0.00022694757
0.24666138	0.017690418	0.00038584144	0.00022694757
0.24685831	0.023680316	0.00051989761	0.0002269354
0.24705525	0.022354694	0.00049155863	0.0002269354
0.24725218	0.019970044	0.00043957488	0.0002269354
0.24744911	0.018602313	0.00041029952	0.00022694757
0.24764605	0.014492754	0.00031803903	0.00022694115
0.247843	0.02165156	0.00047948689	0.0002269354
0.24803993	0.014314928	0.00031707843	0.0002269354
0.24823686	0.01537673	0.00034196785	0.0002269354
0.2484338	0.024949083	0.00055662461	0.00022692325
0.24863073	0.023148147	0.00051927799	0.0002269354
0.24882767	0.018004116	0.00040189229	0.00022692325
0.2490246	0.020693222	0.00046456695	0.00022692325
0.24922153	0.024033438	0.00054295739	0.00022692325
0.24941847	0.030617541	0.00069131533	0.00022692325
0.2496154	0.021085925	0.00047785623	0.000226929
0.24981235	0.02217529	0.00050298648	0.00022692965
0.25000927	0.013577024	0.0003043105	0.00022692325
0.2502062	0.024	0.00054765545	0.0002269354
0.25040314	0.023305085	0.00052923983	0.0002269111
0.25060007	0.025419146	0.00058497855	0.0002269226
0.25079703	0.034722224	0.00079557532	0.0002269111
0.25099397	0.045674369	0.0010513254	0.0002269111
0.2511909	0.025501899	0.00058647699	0.0002269111
0.25138783	0.02746365	0.00062996434	0.0002269111
0.25158477	0.025068119	0.00057784136	0.0002269111
0.2517817	0.02510917	0.00057954242	0.0002269111
0.25197864	0.026301369	0.00060803641	0.0002269111
0.25217557	0.026038781	0.00060566003	0.0002269111
0.2523725	0.025246982	0.00058347109	0.0002269111
0.25256944	0.02668149	0.00062016037	0.0002269111
0.25276637	0.020544142	0.0004758453	0.0002269111
0.2529633	0.027917365	0.00065162056	0.0002268868
0.25316024	0.030968469	0.00072687032	0.0002269111
0.25335717	0.028993746	0.0006833474	0.0002269111
0.25355411	0.02460457	0.0005878798	0.0002269111
0.25375104	0.027075812	0.00065593037	0.0002269111
0.25394797	0.034420289	0.00083758176	0.0002268868
0.25414491	0.02886978	0.00070709246	0.0002269111
0.25434184	0.025932955	0.000643229	0.0002269111
0.25453877	0.030598959	0.0007712185	0.0002269226
0.25473574	0.023505708	0.00060008402	0.0002268868
0.25493267	0.028610354	0.00073631608	0.0002269111
0.25512961	0.041029207	0.0010703049	0.0002269111
0.25532654	0.022711143	0.00059572182	0.0002269111
0.25552347	0.021849964	0.00057931163	0.0002268868
0.25572041	0.027272727	0.00073926221	0.0002269111
0.25591734	0.028363047	0.0007954475	0.0002269111
0.25611427	0.025795357	0.00074229436	0.0002268868
0.25631121	0.02739726	0.00081252394	0.0002268868
0.25650814	0.032987747	0.00099779177	0.0002268868
0.25670508	0.020329138	0.00061756751	0.0002268868
0.25690201	0.022198731	0.00070472166	0.0002268868
0.25709894	0.014590348	0.00046988286	0.0002268868
0.25729588	0.014167651	0.00046635687	0.0002268868
0.25749281	0.016786572	0.00056046329	0.0002268868
0.25768974	0.016352201	0.00055755139	0.0002268868
0.25788668	0.021992238	0.00076221809	0.0002268868
0.25808361	0.016021362	0.00056085986	0.0002268868
0.25828055	0.03146375	0.0011366754	0.0002268868
0.25847748	0.054363377	0.0020275386	0.00022689829
0.25867444	0.043668121	0.0016373483	0.00022686248
0.25887138	0.038226299	0.0014632423	0.00022686248
0.25906831	0.032407407	0.0012374269	0.00022686248
0.25926524	0.044374008	0.0017314473	0.0002268868
0.25946218	0.043478262	0.0017395139	0.00022686248
0.25965911	0.047538199	0.0019149033	0.0002268868
0.25985605	0.038128249	0.0015487876	0.0002268868
0.26005298	0.039930556	0.0016221666	0.00022686248
0.26024991	0.026223777	0.0010551582	0.00022686248
0.26044685	0.025	0.0010189239	0.0002268868
0.26064378	0.033868093	0.0013930162	0.00022686248
0.26084071	0.034172662	0.0014118605	0.00022686248
0.26103765	0.042357273	0.0017723618	0.00022686248
0.26123458	0.046296295	0.0019538333	0.00022686248
0.26143152	0.035849057	0.001517083	0.0002268868
0.26162845	0.029574862	0.001232286	0.00022686248
0.26182538	0.017208412	0.000710116	0.00022686248
0.26202232	0.025440313	0.0010753613	0.00022686248
0.26221925	0.015873017	0.00066203275	0.00022686248
0.26241618	0.030592734	0.0012910753	0.00022684968
0.26261315	0.017857144	0.00075067463	0.00022683818
0.26281008	0.022357723	0.00095324829	0.00022686248
0.26300701	0.026694044	0.0011483511	0.00022686248
0.26320395	0.018108651	0.00076660037	0.00022683818
0.26340088	0.033826638	0.0015075561	0.00022686248
0.26359782	0.020920502	0.00089857483	0.00022683818
0.26379475	0.017094018	0.00072659535	0.00022686248
0.26399168	0.034188036	0.0015317973	0.00022683818
0.26418862	0.023913043	0.0010642218	0.00022683818
0.26438555	0.020134227	0.00089885842	0.00022683818
0.26458248	0.027459955	0.001259106	0.00022683818
0.26477942	0.020179372	0.00090188545	0.00022683818
0.26497635	0.020979021	0.00095606426	0.00022686248
0.26517329	0.048951048	0.0023091144	0.00022683818
0.26537022	0.022004889	0.0010271004	0.00022683818
0.26556715	0.024038462	0.0011194479	0.00022683818
0.26576409	0.01980198	0.00092269917	0.00022683818
0.26596102	0.025252525	0.0012053899	0.00022683818
0.26615795	0.023316063	0.0011203368	0.00022683818
0.26635489	0.025575448	0.0012286048	0.00022684968
0.26655185	0.018567638	0.00086515659	0.00022681388
0.26674879	0.0082191778	0.00035174837	0.00022683818
0.26694572	0.02972973	0.0014756435	0.00022683818
0.26714265	0.021917809	0.001074609	0.00022681388
0.26733959	0.016949153	0.00082351215	0.00022681388
0.26753652	0.025714286	0.0012977334	0.00022681388
0.26773345	0.021148037	0.0010778037	0.00022683818
0.26793039	0.011940299	0.00056581257	0.00022683818
0.26812732	0.01775148	0.00088273216	0.00022683818
0.26832426	0.025	0.0013093287	0.00022683818
0.26852119	0.015873017	0.0008011976	0.00022683818
0.26871812	0.01607717	0.00081672106	0.00022683818
0.26891506	0.022508038	0.0011835413	0.00022681388
0.26911199	0.026936026	0.0014645079	0.00022683818
0.26930892	0.033557046	0.0018472546	0.00022683818
0.26950586	0.020761246	0.0011167772	0.00022683818
0.26970279	0.013745705	0.00069903454	0.00022681388
0.26989973	0.010869565	0.00053518038	0.00022681388
0.27009666	0.0074906368	0.0003247603	0.00022681388
0.27029359	0.0076335878	0.00033411308	0.00022684968
0.27049056	0.0073260074	0.00031409998	0.00022681388
0.27068749	0.0077821012	0.00034392352	0.00022681388
0.27088442	0.0080321282	0.00036065321	0.00022681388
0.27108136	0.0083682006	0.00038355586	0.00022681388
0.27127829	0.012605042	0.00066853553	0.00022681388
0.27147523	0.0070921984	0	0.00022681388
0.27167216	0.011363637	0	0.00022681388
0.27186909	0	0	0.00022681388
0.27206603	0	0	0.00022681388
0.27226296	0	0	0.00022681388
