#   DataFileName=PAL30_145C_WAXS_08172017.tif
#   DataFileType=.tif
#   
#   DataFilePath=E:DATA:PAL30_08262017:
#   
#   Processed on=Wed, Jan 16, 2019,2:43:07 AM
#   Units=Arbitrary
#   SampleThickness=1
#   SampleTransmission=1
#   CorrectionFactor=1
#   SampleMeasurementTime=1
#   EmptyMeasurementTime=1
#   BackgroundMeasTime=1
#   SampleI0=1
#   EmptyI0=1
#   Nika_SampleToDetectorDistacne=1552.1
#   Nika_Wavelength=1.54
#   Nika_XrayEnergy=8.0509
#   Nika_PixelSizeX=0.075
#   Nika_PixelSizeY=0.075
#   Nika_HorizontalTilt=0
#   Nika_VerticalTilt=0
#   Nika_BeamCenterX=1540.3
#   Nika_BeamCenterY=830.17
#   Nika_BeamSizeX=0
#   Nika_BeamCenterY=830.17
#   CalibrationFormula=1*((Sa2D))
#   CurrentMaskFileName=PAL30_30C_WAXS_mask.hdf
#   QvectorMaxNumPnts=1
#   QvectorNumberPoints=1383
#   CircularAverage=1
#   PolarizationCorrection=None
#   UncertainityCalculationMethod=OldNikaMethod

0.0060065244	5.5	3.8729835	0.00022756745
0.00620346	3.9200001	0.77743167	0.00022756765
0.0064003952	3.1052632	0.40892088	0.00022756765
0.0065973303	3.7750001	0.42016989	0.00022756765
0.0067942655	5.4591837	0.54624248	0.00022756765
0.0069912006	8.0841122	0.76292288	0.00022756745
0.0071881362	9.1393442	0.80524081	0.00022756727
0.0073850714	9.8167934	0.83806598	0.00022756727
0.0075820065	8.8896551	0.7256434	0.00022756727
0.0077789417	8.5986395	0.69727784	0.00022756745
0.0079758773	7.3544302	0.57524168	0.00022756746
0.0081728119	6.6012268	0.50879115	0.00022756707
0.0083697475	5.4382024	0.40054372	0.00022756671
0.0085666822	5.0259066	0.35653737	0.00022756783
0.0087636178	4.4923077	0.31731281	0.00022756783
0.0089605534	3.9810426	0.27066943	0.00022756746
0.0091574881	3.4759824	0.22643209	0.00022756707
0.0093544237	3.296	0.20587172	0.00022756671
0.0095513584	3.0228138	0.18409836	0.00022756707
0.009748294	2.6948528	0.16164288	0.00022756707
0.0099452296	2.400722	0.14284593	0.00022756595
0.010142164	2.2769785	0.13527744	0.00022756707
0.0103391	2.1414142	0.12308527	0.00022756671
0.010536035	1.877966	0.10835381	0.00022756707
0.01073297	1.7401316	0.098873653	0.00022756783
0.010929906	1.7877814	0.10048491	0.00022756746
0.01112684	1.6038339	0.089826569	0.00022756783
0.011323776	1.5180722	0.082659945	0.00022756746
0.011520711	1.3292683	0.072701499	0.00022756707
0.011717646	1.1923077	0.06423679	0.00022756707
0.011914582	1.1578947	0.062128283	0.00022756746
0.012111517	1.1565218	0.061732925	0.00022756783
0.012308452	0.89835167	0.046688825	0.00022756671
0.012505387	0.99435025	0.05235621	0.00022756783
0.012702323	0.93386245	0.047699288	0.00022756783
0.012899258	0.92761391	0.047749009	0.00022756671
0.013096193	0.81413615	0.041286647	0.00022756707
0.013293128	0.78772378	0.039589979	0.00022756671
0.013490063	0.82474226	0.041588169	0.00022756707
0.013686999	0.71078432	0.034916233	0.00022756707
0.013883934	0.57664233	0.02825667	0.00022756671
0.014080869	0.67224878	0.032719225	0.00022756707
0.014277805	0.6752941	0.032541577	0.00022756671
0.014474739	0.59338063	0.028653538	0.0002275663
0.014671675	0.58690745	0.027743185	0.00022756707
0.014868611	0.44090909	0.020881228	0.00022756671
0.015065545	0.60219783	0.028048282	0.0002275663
0.015262481	0.48712447	0.022402102	0.00022756671
0.015459416	0.45934066	0.02139817	0.00022756595
0.01565635	0.42857143	0.019650463	0.00022756707
0.015853286	0.44798303	0.020523032	0.00022756554
0.016050221	0.39175257	0.01768269	0.00022756707
0.016247157	0.43319839	0.019394476	0.00022756707
0.016444093	0.37	0.016442284	0.00022756483
0.016641026	0.39959839	0.017805228	0.00022756707
0.016837962	0.34468937	0.015313765	0.00022756707
0.017034898	0.35603112	0.015612482	0.00022756554
0.017231833	0.30401531	0.013210512	0.00022756554
0.017428769	0.30740038	0.013314133	0.00022756483
0.017625703	0.26542056	0.011406992	0.00022756554
0.017822638	0.2811918	0.012061448	0.00022756554
0.018019574	0.2665441	0.011337683	0.00022756554
0.018216509	0.23357664	0.0099221924	0.00022756554
0.018413445	0.25939178	0.010903621	0.00022756483
0.018610379	0.27738515	0.011603925	0.00022756554
0.018807314	0.2425829	0.010070987	0.00022756554
0.01900425	0.23916811	0.0099028721	0.00022756554
0.019201186	0.22202797	0.0092358226	0.00022756554
0.019398121	0.22948074	0.0093428809	0.00022756483
0.019595055	0.21186441	0.0086717028	0.00022756554
0.019791991	0.20826447	0.0084308144	0.00022756554
0.019988926	0.24793388	0.01002577	0.00022756554
0.020185862	0.21078432	0.0084814336	0.00022756554
0.020382797	0.18152866	0.0071952436	0.00022756483
0.020579731	0.2038835	0.0081530539	0.00022756403
0.020776667	0.1724138	0.0067888084	0.00022756403
0.020973602	0.18779343	0.007379882	0.00022756554
0.021170538	0.17031249	0.0066922242	0.00022756403
0.021367474	0.1749623	0.0067626024	0.0002275633
0.021564407	0.18421052	0.0072088409	0.00022756403
0.021761343	0.16890882	0.006492917	0.00022756403
0.021958278	0.17043741	0.0065786885	0.00022756403
0.022155214	0.16152717	0.0061531933	0.00022756403
0.02235215	0.17005815	0.0064522387	0.0002275633
0.022549083	0.12334802	0.0046999166	0.00022756403
0.022746019	0.14609928	0.0054701334	0.00022756403
0.022942955	0.12912482	0.0048617246	0.00022756403
0.02313989	0.14992929	0.0056053773	0.00022756403
0.023336826	0.15202232	0.0056465659	0.0002275633
0.02353376	0.13361463	0.0049846536	0.00022756403
0.023730695	0.13432837	0.004923291	0.00022756403
0.023927631	0.15724137	0.0058140759	0.0002275625
0.024124566	0.15013404	0.0054648523	0.00022756403
0.024321502	0.1313673	0.0047827624	0.00022756179
0.024518436	0.13422818	0.0048899432	0.0002275625
0.024715371	0.14888011	0.0053797583	0.0002275625
0.024912307	0.14398943	0.0052092234	0.0002275625
0.025109243	0.10485934	0.0037213443	0.0002275625
0.025306178	0.1293661	0.0046293731	0.00022756179
0.025503112	0.10344828	0.0036712871	0.0002275625
0.025700048	0.12198221	0.0043258672	0.0002275625
0.025896983	0.13867685	0.0049201311	0.0002275625
0.026093919	0.10344828	0.0036067276	0.00022756097
0.026290854	0.117866	0.0041286051	0.00022756179
0.026487788	0.11707317	0.0040659341	0.0002275625
0.026684724	0.11246943	0.0039114938	0.00022756097
0.026881659	0.096224114	0.0033362461	0.0002275625
0.027078595	0.11813843	0.0040590148	0.00022756097
0.027275531	0.097472921	0.0033603087	0.00022756179
0.027472464	0.083818391	0.0028371215	0.00022756097
0.0276694	0.10874704	0.0037170679	0.00022756097
0.027866336	0.10672854	0.0036135858	0.00022756097
0.028063271	0.11976744	0.0040626545	0.00022756097
0.028260207	0.082750581	0.0028061641	0.00022756026
0.028457141	0.084175088	0.0028006611	0.00022756097
0.028654076	0.085130535	0.0028479847	0.00022756097
0.028851012	0.088366888	0.0029359248	0.00022756097
0.029047947	0.080627099	0.0026792085	0.00022756097
0.029244883	0.082114734	0.0027314394	0.00022756026
0.029441817	0.09694989	0.0031814973	0.00022756097
0.029638752	0.082417585	0.0027138651	0.00022755946
0.029835688	0.079827398	0.0026045411	0.00022756097
0.030032624	0.086021505	0.0028036917	0.00022755946
0.030229559	0.098484851	0.0032210513	0.00022755875
0.030426493	0.097872339	0.00317388	0.00022755946
0.030623429	0.10969116	0.0035624183	0.00022755946
0.030820364	0.06501548	0.0020698388	0.00022755946
0.0310173	0.079915881	0.0025738908	0.00022755946
0.031214235	0.080912866	0.0025888868	0.00022755946
0.031411171	0.079055443	0.0025161686	0.00022755875
0.031608105	0.072388828	0.0023114188	0.00022755571
0.031805038	0.083923154	0.0026526484	0.00022756017
0.032001976	0.085945398	0.0027170135	0.00022755875
0.03219891	0.094472364	0.0029787947	0.00022756017
0.032395847	0.070929073	0.0022253294	0.00022755875
0.032592781	0.071499504	0.0022367986	0.00022755875
0.032789715	0.08219178	0.0025547054	0.00022756017
0.032986652	0.093596056	0.002921788	0.00022755571
0.033183586	0.083739042	0.0025990496	0.00022755713
0.033380523	0.079961464	0.002466992	0.00022755875
0.033577457	0.073217727	0.0022570735	0.00022755571
0.033774391	0.07530982	0.0023111824	0.00022755713
0.033971328	0.092557251	0.0028447683	0.00022755571
0.034168262	0.064333022	0.0019638068	0.00022756017
0.0343652	0.069745526	0.0021257228	0.00022755571
0.034562133	0.080779947	0.0024471169	0.00022755571
0.034759067	0.056586269	0.0017091355	0.00022756017
0.034956004	0.078703701	0.0023811839	0.00022755571
0.035152938	0.050228309	0.0015047191	0.00022755713
0.035349876	0.061131388	0.0018314715	0.00022755571
0.035546809	0.068058074	0.0020362746	0.00022755571
0.035743743	0.080615945	0.0024118291	0.00022755713
0.035940681	0.069955155	0.0020821062	0.00022755571
0.036137614	0.067495562	0.0019979936	0.00022755713
0.036334552	0.075488456	0.0022370394	0.00022755266
0.036531486	0.08024691	0.0023700353	0.00022755266
0.036728419	0.067019403	0.0019765345	0.00022755713
0.036925357	0.059999999	0.001756076	0.00022755571
0.037122291	0.079930492	0.0023424961	0.00022755713
0.037319228	0.083188906	0.0024360511	0.00022755571
0.037516162	0.072943173	0.0021120002	0.00022755266
0.037713096	0.088260494	0.0025694689	0.00022755713
0.037910033	0.045144804	0.0013037408	0.00022755266
0.038106967	0.079728581	0.0023095116	0.00022755409
0.038303904	0.06666667	0.0019248468	0.00022755266
0.038500838	0.060732111	0.0017404106	0.00022755266
0.038697772	0.069421485	0.0019834938	0.00022755409
0.038894709	0.070364237	0.002013111	0.00022755266
0.039091643	0.063689001	0.0018180168	0.00022755409
0.03928858	0.056557376	0.001607773	0.00022755266
0.039485514	0.077173032	0.0021886004	0.00022755266
0.039682448	0.056051992	0.0015852503	0.00022755409
0.039879385	0.061847389	0.001740907	0.00022755266
0.040076319	0.054400001	0.0015272491	0.00022755409
0.040273257	0.067415729	0.0018981332	0.00022754962
0.04047019	0.070803501	0.0019858198	0.00022754962
0.040667124	0.069896743	0.0019589413	0.00022755409
0.040864062	0.073494919	0.0020437178	0.00022755266
0.041060995	0.060653187	0.0016800053	0.00022755409
0.041257933	0.060062401	0.0016660672	0.00022754962
0.041454867	0.059922177	0.0016608026	0.00022755266
0.0416518	0.059922177	0.0016608026	0.00022755409
0.041848738	0.067175575	0.0018449136	0.00022754962
0.042045671	0.067680605	0.0018558655	0.00022754801
0.042242609	0.072243348	0.001981562	0.00022754657
0.042439543	0.066818528	0.0018306992	0.00022754353
0.042636476	0.05785124	0.001575702	0.00022754801
0.042833414	0.057981927	0.0015810456	0.00022754657
0.043030348	0.063480206	0.0017237536	0.00022754801
0.043227285	0.063515507	0.0017164521	0.00022754353
0.043424219	0.056005895	0.0015095463	0.00022754353
0.043621153	0.058088236	0.001565205	0.00022754801
0.04381809	0.065982401	0.0017763844	0.00022754353
0.044015024	0.053401608	0.0014341209	0.00022754495
0.044211961	0.0557971	0.0014925081	0.00022754353
0.044408895	0.061870504	0.001649736	0.00022754353
0.044605829	0.068247125	0.0018191966	0.00022754495
0.044802766	0.063127689	0.0016813151	0.00022754353
0.0449997	0.06067095	0.0016112553	0.00022754495
0.045196638	0.076325089	0.0020196319	0.00022754353
0.045393571	0.050354611	0.0013314619	0.00022754353
0.045590505	0.058163982	0.0015309544	0.00022754495
0.045787442	0.063113607	0.0016617753	0.00022754048
0.045984376	0.061111111	0.0016013808	0.00022754191
0.046181314	0.068702288	0.0018007403	0.00022754353
0.046378247	0.060082871	0.0015701747	0.00022754048
0.046575181	0.055939227	0.0014603244	0.00022754191
0.046772119	0.068540096	0.0017845647	0.00022754353
0.046969052	0.066031314	0.0017139442	0.00022754495
0.04716599	0.070892982	0.0018412535	0.00022754048
0.047362924	0.06671159	0.0017219594	0.00022754048
0.047559857	0.067694373	0.0017433914	0.00022754495
0.047756795	0.054398924	0.0014010618	0.00022754048
0.047953729	0.064386316	0.0016585788	0.00022754495
0.048150666	0.048440609	0.0012382423	0.00022754048
0.0483476	0.056403451	0.0014434349	0.00022754048
0.048544534	0.051735427	0.0013148973	0.00022754191
0.048741471	0.069874756	0.0017835577	0.00022753744
0.048938405	0.063843645	0.0016201913	0.00022754191
0.049135342	0.066841416	0.0017012372	0.00022754048
0.049332276	0.056383669	0.0014252894	0.00022753744
0.04952921	0.065329887	0.0016520129	0.00022753887
0.049726147	0.0625403	0.0015777679	0.00022753744
0.049923081	0.063331224	0.001583722	0.00022754191
0.050120018	0.053708442	0.0013480738	0.00022753744
0.050316952	0.068458095	0.0017214461	0.00022753744
0.050513886	0.047619049	0.0011892284	0.00022753887
0.050710823	0.041851617	0.001045234	0.00022753744
0.050907757	0.042830542	0.0010580876	0.00022753887
0.051104695	0.046845723	0.0011620509	0.00022753744
0.051301628	0.053058676	0.0013152718	0.00022753744
0.051498562	0.042446941	0.0010509306	0.00022753887
0.0516955	0.051329624	0.001267664	0.00022753744
0.051892433	0.054467563	0.0013378686	0.00022753887
0.052089371	0.041975308	0.0010336881	0.0002275344
0.052286305	0.063145116	0.0015461623	0.00022753744
0.052483238	0.046808511	0.0011445716	0.00022753583
0.052680176	0.054711245	0.0013383135	0.0002275344
0.052877109	0.058358662	0.0014289656	0.00022753887
0.053074047	0.050632913	0.0012323328	0.0002275344
0.053270981	0.050149255	0.0012159405	0.00022753744
0.053467914	0.044152744	0.001069325	0.00022753887
0.053664852	0.055555556	0.0013630345	0.0002275344
0.053861786	0.052012384	0.0012850813	0.00022753583
0.054058723	0.057285182	0.0014193841	0.0002275344
0.054255657	0.063079774	0.0015587265	0.0002275344
0.054452591	0.037523452	0.00092897564	0.00022753583
0.054649528	0.06113537	0.0015173773	0.0002275344
0.054846462	0.062068965	0.001544377	0.00022753583
0.055043399	0.050409578	0.0012548644	0.00022753136
0.055240333	0.050536957	0.0012594245	0.0002275344
0.055437267	0.052930057	0.0013177288	0.00022753583
0.055634204	0.046307884	0.0011483682	0.00022753136
0.055831138	0.051931601	0.0012959833	0.00022753279
0.056028076	0.058527377	0.0014578796	0.00022753136
0.056225009	0.047408342	0.0011807004	0.00022753136
0.056421943	0.052329291	0.0013109017	0.00022753279
0.05661888	0.057196733	0.0014238897	0.00022753136
0.056815814	0.040226273	0.00099866535	0.00022753279
0.057012752	0.046835445	0.0011689207	0.00022753136
0.057209685	0.06313131	0.0015751092	0.00022752832
0.057406619	0.067550503	0.00168717	0.00022753279
0.057603557	0.059380922	0.001482432	0.00022753136
0.05780049	0.060126584	0.001502612	0.00022753279
0.057997428	0.058417086	0.0014541008	0.00022752832
0.058194362	0.058080807	0.0014488897	0.00022752832
0.058391295	0.051168665	0.0012765331	0.00022752974
0.058588233	0.05075188	0.0012594025	0.00022752832
0.058785167	0.059493672	0.0014847787	0.00022752974
0.058982104	0.04462602	0.0011081094	0.00022752832
0.059179038	0.050251257	0.0012471677	0.00022752832
0.059375972	0.044052862	0.0010943643	0.00022752974
0.059572909	0.035714287	0.00088498689	0.00022752528
0.059769843	0.074354127	0.0018558768	0.00022752974
0.05996678	0.052044611	0.001283683	0.00022752528
0.060163714	0.04977946	0.0012392056	0.00022752528
0.060360648	0.042394016	0.0010489653	0.00022752974
0.060557585	0.058860362	0.0014618014	0.00022752528
0.060754519	0.051026758	0.0012618707	0.0002275267
0.060951456	0.051810239	0.0012828604	0.00022752528
0.06114839	0.066583693	0.0016506333	0.00022752528
0.061345324	0.052926525	0.0013110973	0.0002275267
0.061542261	0.05279503	0.0013056624	0.00022752528
0.061739195	0.052860696	0.0013079157	0.0002275267
0.061936133	0.054556727	0.0013484396	0.00022752528
0.062133066	0.056311883	0.0013901165	0.00022752528
0.06233	0.06830769	0.0016841929	0.00022752528
0.062526934	0.072311498	0.0017879175	0.0002275251
0.062723875	0.059553351	0.0014725914	0.00022751919
0.062920809	0.065351419	0.0016130242	0.00022752528
0.063117743	0.070675761	0.0017499807	0.00022751919
0.063314676	0.055691555	0.0013680436	0.00022751919
0.06351161	0.065363467	0.0016058839	0.00022752814
0.063708551	0.059472717	0.0014619929	0.00022751919
0.063905485	0.059332509	0.0014627922	0.00022751919
0.064102419	0.05792683	0.001419776	0.00022751919
0.064299352	0.04898959	0.0012037345	0.00022752528
0.064496286	0.056741916	0.0013915022	0.00022752205
0.064693227	0.045565005	0.001114312	0.00022751919
0.064890161	0.050909091	0.0012435064	0.00022751919
0.065087095	0.05681124	0.0013935625	0.00022752528
0.065284029	0.050091632	0.0012291922	0.00022752528
0.065480962	0.058111381	0.0014203598	0.00022752205
0.065677904	0.046329722	0.0011280185	0.00022752528
0.065874837	0.044767089	0.0010923336	0.00022751919
0.066071771	0.057796508	0.001408209	0.00022751919
0.066268705	0.047762997	0.0011661801	0.00022751919
0.066465639	0.058398556	0.0014243965	0.00022752205
0.06666258	0.053892214	0.0013088608	0.00022751919
0.066859514	0.044215627	0.0010791796	0.00022751919
0.067056447	0.054696791	0.0013252121	0.00022751919
0.067253381	0.049611475	0.0012036515	0.00022751919
0.067450315	0.054393306	0.0013201537	0.00022751596
0.067647256	0.050299402	0.0012217582	0.00022751919
0.06784419	0.059352517	0.0014430446	0.00022751919
0.068041123	0.045562129	0.0011000958	0.00022751311
0.068238057	0.048014227	0.0011601261	0.00022751311
0.068434991	0.045751635	0.0011062089	0.00022752205
0.068631932	0.044917259	0.0010829928	0.00022751311
0.068828866	0.043062203	0.001044661	0.00022751311
0.0690258	0.05435418	0.0013055014	0.00022751311
0.069222733	0.051948052	0.0012543491	0.00022751311
0.069419667	0.056146573	0.0013571032	0.00022751596
0.069616608	0.051582649	0.0012408105	0.00022751311
0.069813542	0.071638286	0.0017272212	0.00022751311
0.070010476	0.058303885	0.0014062719	0.00022751311
0.07020741	0.04370939	0.0010544301	0.00022751311
0.070404343	0.060080878	0.0014356441	0.00022752205
0.070601285	0.045534149	0.0010917712	0.00022751311
0.070798218	0.049389891	0.0011827088	0.00022751311
0.070995152	0.038709678	0.00092909404	0.00022751311
0.071192086	0.048453007	0.0011607026	0.00022751311
0.071389019	0.044879172	0.0010684734	0.00022751596
0.071585961	0.04698376	0.0011236679	0.00022750701
0.071782894	0.047976878	0.0011451525	0.00022751311
0.071979828	0.044689495	0.0010680876	0.00022751311
0.072176762	0.050720461	0.0012090333	0.00022751311
0.072373696	0.054441262	0.0012950087	0.00022751596
0.072570637	0.045217391	0.0010807572	0.00022751311
0.072767571	0.041500852	0.00098206196	0.00022750701
0.072964504	0.054976851	0.0013143172	0.00022750701
0.073161438	0.049403749	0.0011691056	0.00022751311
0.073358372	0.05491991	0.0013053812	0.00022750988
0.073555313	0.035714287	0.00084957451	0.00022750701
0.073752247	0.047484454	0.0011207879	0.00022751311
0.073949181	0.048515983	0.0011516133	0.00022750701
0.074146114	0.04640634	0.0010963756	0.00022751311
0.074343048	0.036508843	0.00086474471	0.00022750988
0.074539989	0.044860873	0.0010604685	0.00022750701
0.074736923	0.038569033	0.0009039474	0.00022750701
0.074933857	0.04894707	0.001159021	0.00022750701
0.07513079	0.045608107	0.0010740064	0.00022750701
0.075327724	0.042792793	0.0010075924	0.0002275038
0.075524665	0.041126762	0.0009689955	0.00022750701
0.075721599	0.045100223	0.0010567671	0.00022750093
0.075918533	0.047860362	0.0011283446	0.00022750701
0.076115467	0.050923336	0.001197306	0.00022750701
0.0763124	0.053601339	0.0012594745	0.00022750988
0.076509342	0.042269189	0.00098915258	0.00022750701
0.076706275	0.039977789	0.00093407021	0.00022750701
0.076903209	0.044282511	0.0010403618	0.00022750701
0.077100143	0.05895317	0.0013764686	0.00022750093
0.077297077	0.041574281	0.00097184919	0.0002275038
0.077494018	0.046162404	0.0010811131	0.00022750093
0.077690952	0.047278725	0.0011010162	0.00022750093
0.077887885	0.037325904	0.00087346119	0.00022750093
0.078084819	0.053921569	0.0012512286	0.00022750093
0.078281753	0.036873966	0.00085764279	0.0002275038
0.078478694	0.046780407	0.0010899038	0.00022750093
0.078675628	0.040415075	0.00093730405	0.00022750093
0.078872561	0.047409039	0.0011055723	0.00022750093
0.079069495	0.044141691	0.0010224594	0.00022750093
0.079266429	0.036552101	0.00084662781	0.0002275038
0.07946337	0.050163578	0.0011643153	0.00022750093
0.079660304	0.048134126	0.0011115433	0.00022750093
0.079857238	0.049699619	0.0011541182	0.00022750093
0.080054171	0.040562466	0.00093658105	0.00022750093
0.080251105	0.041961852	0.00097262411	0.0002275038
0.080448046	0.051212937	0.0011813914	0.00022749485
0.08064498	0.048715204	0.0011198556	0.00022750093
0.080841914	0.043902438	0.0010154123	0.00022750093
0.081038848	0.045600858	0.0010487878	0.00022749485
0.081235781	0.050324675	0.0011639813	0.00022749772
0.081432723	0.041622199	0.00095443736	0.00022749485
0.081629656	0.044799998	0.0010279712	0.00022749485
0.08182659	0.045527585	0.0010464075	0.00022749485
0.082023524	0.048962213	0.0011221959	0.00022749485
0.082220457	0.048102617	0.0011056169	0.00022749772
0.082417399	0.039466668	0.00090449949	0.00022749485
0.082614332	0.037786055	0.00086490071	0.00022749485
0.082811266	0.047265004	0.0010826766	0.00022749485
0.0830082	0.053684212	0.0012250376	0.00022749485
0.083205134	0.050739959	0.001159837	0.00022749163
0.083402075	0.046487056	0.0010618158	0.00022749485
0.083599009	0.044704631	0.0010245427	0.00022749485
0.083795942	0.045120671	0.0010273301	0.00022748877
0.083992876	0.045049764	0.0010246282	0.00022749485
0.08418981	0.038219895	0.0008675853	0.00022749772
0.084386751	0.05023548	0.0011423285	0.00022748877
0.084583685	0.061683219	0.0014029415	0.00022749485
0.084780619	0.039042167	0.00088409416	0.00022749485
0.084977552	0.042797495	0.00097083591	0.00022748877
0.085174486	0.046535678	0.0010513695	0.00022749163
0.085371427	0.041601665	0.00094223389	0.00022748877
0.085568361	0.053525478	0.0012077378	0.00022748877
0.085765295	0.048868313	0.0011022965	0.00022748877
0.085962228	0.038581856	0.00087489665	0.00022748877
0.086159162	0.038105045	0.00085824833	0.00022748555
0.086356103	0.050968401	0.0011442702	0.00022748877
0.086553037	0.042607803	0.00095865637	0.00022748877
0.086749971	0.056881666	0.0012755503	0.00022748877
0.086946905	0.043209877	0.00097288104	0.00022748268
0.087143838	0.04054739	0.00090635108	0.00022749163
0.08734078	0.043855175	0.00098400272	0.00022748877
0.087537713	0.051671732	0.0011570156	0.00022748268
0.087734647	0.046535153	0.0010406553	0.00022748877
0.087931581	0.047764227	0.0010701152	0.00022748877
0.088128515	0.053239577	0.0011862158	0.00022748555
0.088325456	0.047331318	0.0010555974	0.00022748268
0.08852239	0.048101265	0.0010757174	0.00022748268
0.088719323	0.053419869	0.001186848	0.00022748268
0.088916257	0.044088177	0.0009809389	0.00022748268
0.089113191	0.042457543	0.00094235246	0.00022748555
0.089310132	0.049950048	0.0011101426	0.00022748268
0.089507066	0.038346615	0.00084994733	0.00022748268
0.089703999	0.049603175	0.0010982632	0.00022748268
0.089900933	0.048500001	0.0010782306	0.00022748268
0.090097867	0.045253322	0.00099782844	0.00022747947
0.090294808	0.040877368	0.00090636499	0.00022748268
0.090491742	0.045387272	0.0010021429	0.00022748268
0.090688676	0.041028176	0.00090663368	0.00022748268
0.090885609	0.049358342	0.0010902511	0.0002274766
0.091082543	0.053175777	0.001174141	0.00022748268
0.091279477	0.03787506	0.00083417248	0.00022748555
0.091476418	0.050172158	0.0011063622	0.0002274766
0.091673352	0.046386719	0.0010192802	0.00022748268
0.091870286	0.046146292	0.0010159641	0.0002274766
0.092067219	0.047012731	0.0010339409	0.0002274766
0.092264153	0.0496592	0.0010895418	0.00022747947
0.092461094	0.050243903	0.0011035197	0.0002274766
0.092658028	0.048899755	0.0010755248	0.0002274766
0.092854962	0.040154815	0.00087757641	0.0002274766
0.093051895	0.047365878	0.0010355924	0.0002274766
0.093248829	0.04225352	0.000925545	0.00022747337
0.09344577	0.046882551	0.0010250674	0.0002274766
0.093642704	0.036929056	0.00080815301	0.00022747052
0.093839638	0.041465767	0.00090480089	0.0002274766
0.094036572	0.045214046	0.00098611892	0.0002274766
0.094233505	0.048169557	0.0010514143	0.00022747947
0.094430447	0.054118775	0.0011778022	0.00022747052
0.09462738	0.049275361	0.0010769317	0.00022747052
0.094824314	0.043998089	0.00095579348	0.00022747052
0.095021248	0.047869794	0.0010408757	0.00022747052
0.095218182	0.046168491	0.0010008722	0.00022747337
0.095415123	0.053989489	0.001174513	0.00022747052
0.095612057	0.053835161	0.0011691096	0.00022747052
0.09580899	0.045649074	0.0009891669	0.00022747052
0.096005924	0.049760766	0.0010825665	0.00022747052
0.096202858	0.050260786	0.0010887379	0.00022747337
0.096399799	0.051063828	0.0011047848	0.00022747052
0.096596733	0.047977421	0.0010346562	0.00022746444
0.096793666	0.047731567	0.0010323281	0.00022747052
0.0969906	0.049149338	0.0010625727	0.00022746444
0.097187534	0.052780397	0.0011402763	0.00022747337
0.097384475	0.051960323	0.0011238633	0.00022746444
0.097581409	0.044642858	0.0009625525	0.00022747052
0.097778343	0.043275941	0.00092806219	0.00022746444
0.097975276	0.048	0.0010355881	0.00022746444
0.09817221	0.054570895	0.0011728266	0.00022746729
0.098369151	0.044318717	0.00095675013	0.00022746444
0.098566085	0.046780918	0.0010014382	0.00022746444
0.098763019	0.044496488	0.00095739233	0.00022746444
0.098959953	0.040703055	0.00086991588	0.00022746444
0.099156886	0.048960738	0.0010465753	0.00022746121
0.099353828	0.049953315	0.0010731991	0.00022746444
0.099550761	0.041821562	0.00089615374	0.00022745834
0.099747695	0.038727526	0.00082547363	0.00022745834
0.099944629	0.038390379	0.00082012435	0.00022745834
0.10014156	0.036781609	0.00078317139	0.00022746121
0.1003385	0.044300877	0.00094608025	0.00022745834
0.10053544	0.043119267	0.00091837801	0.00022746444
0.10073237	0.040892195	0.00087610201	0.00022745834
0.1009293	0.041246563	0.00087729399	0.00022746444
0.10112624	0.039090909	0.00082761521	0.00022746121
0.10132318	0.03538603	0.00075329759	0.00022746444
0.10152011	0.03771013	0.00079830241	0.00022745834
0.10171705	0.042066757	0.00089418888	0.00022745834
0.10191398	0.049680948	0.0010550256	0.00022745834
0.10211091	0.046139792	0.0009803354	0.00022746121
0.10230786	0.046384722	0.00098394009	0.00022745834
0.10250479	0.037974682	0.00080220902	0.00022745226
0.10270172	0.041891892	0.00088337419	0.00022745226
0.10289866	0.041913439	0.00088909135	0.00022745226
0.10309559	0.042870037	0.00090537488	0.00022745512
0.10329253	0.034904804	0.00073785492	0.00022745226
0.10348947	0.039461885	0.0008300991	0.00022745834
0.1036864	0.051801801	0.0010943032	0.00022745226
0.10388333	0.053835802	0.0011349902	0.00022745226
0.10408027	0.040935673	0.00086331903	0.00022746121
0.10427721	0.049327355	0.0010394318	0.00022745226
0.10447414	0.040376849	0.00085022062	0.00022745226
0.10467108	0.048573975	0.0010199561	0.00022745226
0.10486801	0.046490837	0.00097715855	0.00022745226
0.10506494	0.045232818	0.00094705028	0.00022745512
0.10526188	0.055233855	0.00116021	0.00022745226
0.10545882	0.043419875	0.00091341307	0.00022744617
0.10565575	0.045635801	0.00095549418	0.00022745226
0.10585269	0.039520428	0.0008274393	0.00022745226
0.10604962	0.044169612	0.00092235027	0.00022745512
0.10624656	0.048672568	0.0010186308	0.00022744617
0.10644349	0.048543688	0.0010150108	0.00022744617
0.10664043	0.036547776	0.00076234591	0.00022745226
0.10683736	0.042016808	0.00087867375	0.00022744617
0.1070343	0.041813381	0.00087249489	0.00022744904
0.10723124	0.051158722	0.0010647054	0.00022744617
0.10742817	0.049339209	0.0010305824	0.00022744617
0.1076251	0.051193058	0.0010609928	0.00022744617
0.10782204	0.049230769	0.0010270207	0.00022744617
0.10801897	0.048972454	0.001018947	0.00022744904
0.10821591	0.051641136	0.0010751892	0.00022744617
0.10841285	0.048387095	0.0010050935	0.00022744617
0.10860978	0.040675033	0.00084110739	0.00022744009
0.10880671	0.049165934	0.0010249923	0.00022744009
0.10900365	0.050064739	0.00103535	0.00022744904
0.10920059	0.052313015	0.0010825665	0.00022744009
0.10939752	0.048156183	0.00099798804	0.00022744009
0.10959446	0.054859612	0.0011355826	0.00022744009
0.10979139	0.052997395	0.0010994744	0.00022744009
0.10998832	0.042434633	0.00087383151	0.00022744296
0.11018527	0.055196207	0.0011409721	0.00022744009
0.1103822	0.047824215	0.00098768482	0.00022744009
0.11057913	0.054077253	0.0011153822	0.00022743401
0.11077607	0.052925989	0.0010929042	0.00022744009
0.110973	0.057495739	0.001181616	0.00022743687
0.11116994	0.051731508	0.0010648572	0.00022743401
0.11136688	0.053961456	0.0011119423	0.00022743401
0.11156381	0.05061676	0.0010389327	0.00022743401
0.11176074	0.058119658	0.0011967848	0.00022743401
0.11195768	0.060220525	0.0012354775	0.00022744296
0.11215462	0.053869177	0.0011092318	0.00022743401
0.11235155	0.065789476	0.0013506886	0.00022743401
0.11254849	0.067961164	0.001391925	0.00022743401
0.11274542	0.074089758	0.0015195286	0.00022743401
0.11294235	0.064488754	0.0013237095	0.00022743687
0.11313929	0.074904785	0.0015363842	0.00022743401
0.11333623	0.075954676	0.0015515792	0.00022743401
0.11353316	0.075687103	0.001551493	0.00022742792
0.1137301	0.057142857	0.0011668639	0.00022743401
0.11392703	0.072803348	0.0014843841	0.00022743079
0.11412397	0.062158756	0.001269293	0.00022742792
0.1143209	0.075662039	0.0015462961	0.00022742792
0.11451784	0.07534533	0.0015370735	0.00022742792
0.11471477	0.064204782	0.0013109291	0.00022742792
0.11491171	0.063380279	0.001285589	0.00022743079
0.11510865	0.065943241	0.0013421649	0.00022742792
0.11530558	0.058701083	0.0011931811	0.00022742792
0.11550251	0.071099959	0.0014490612	0.00022742792
0.11569945	0.062992126	0.0012777242	0.00022742792
0.11589638	0.067025237	0.0013587162	0.00022743079
0.11609332	0.053327821	0.0010796897	0.00022742792
0.11629026	0.064155631	0.00130068	0.00022742792
0.11648719	0.069450185	0.0014076479	0.00022742184
0.11668412	0.063996695	0.0012959035	0.00022742184
0.11688106	0.070836782	0.0014370847	0.00022742471
0.117078	0.060855262	0.0012294583	0.00022742184
0.11727493	0.068358578	0.0013787164	0.00022742184
0.11747187	0.062627919	0.0012624367	0.00022742184
0.1176688	0.060270604	0.0012158038	0.00022742184
0.11786573	0.068069309	0.0013778872	0.00022742471
0.11806267	0.068191096	0.001373553	0.00022742184
0.11825961	0.068004914	0.0013717643	0.00022742184
0.11845654	0.075831309	0.0015223461	0.00022742184
0.11865348	0.082621083	0.0016621135	0.00022742184
0.11885041	0.082343303	0.0016618051	0.00022741863
0.11904735	0.075708501	0.0015187801	0.00022741576
0.11924428	0.081366964	0.0016368326	0.00022741576
0.11944122	0.071601942	0.0014356511	0.00022741576
0.11963815	0.079203896	0.0015918076	0.00022741576
0.11983509	0.080353558	0.0016061827	0.00022741863
0.12003203	0.080371566	0.0016104833	0.00022741576
0.12022896	0.085737504	0.0017234047	0.00022741576
0.12042589	0.088663965	0.0017795152	0.00022741576
0.12062283	0.075350702	0.0015042509	0.00022741576
0.12081976	0.083032489	0.0016582398	0.00022741863
0.1210167	0.092	0.0018355608	0.00022741576
0.12121364	0.11227787	0.0022516954	0.00022740968
0.12141057	0.095808387	0.0019098107	0.00022740968
0.1216075	0.10429202	0.0020843279	0.00022741576
0.12180444	0.10987261	0.0021872444	0.00022741254
0.12200138	0.1155839	0.0023031805	0.00022740968
0.12219831	0.10303514	0.0020547593	0.00022741576
0.12239525	0.1160396	0.0023049244	0.00022741576
0.12259218	0.11466241	0.0022874142	0.00022740968
0.12278911	0.14365301	0.0028613578	0.00022741254
0.12298606	0.17077045	0.0033987525	0.00022740968
0.12318299	0.22209026	0.0044146115	0.00022740968
0.12337992	0.33856416	0.0067010419	0.00022740968
0.12357686	0.55414516	0.011031274	0.00022740968
0.12377379	0.87159228	0.017318357	0.00022740646
0.12397073	1.3201737	0.026223792	0.00022740968
0.12416767	2.1197958	0.042002104	0.00022740359
0.1243646	3.0011756	0.059398431	0.00022740359
0.12456153	4.2007098	0.083403803	0.00022740359
0.12475847	5.4169278	0.10721599	0.00022740646
0.12495541	6.6485634	0.13187927	0.00022739463
0.12515233	7.6942925	0.15211724	0.00022740323
0.12534928	8.3838072	0.16539642	0.00022739751
0.12554622	8.5252247	0.16858272	0.00022739751
0.12574315	8.4520016	0.16661641	0.00022739751
0.12594008	8.0973034	0.16006075	0.00022739751
0.12613702	7.4337349	0.14654352	0.00022740968
0.12633395	6.780117	0.13386518	0.00022740968
0.12653089	6.1041827	0.12011934	0.00022739751
0.12672782	5.3095055	0.10435659	0.00022739751
0.12692475	4.6518693	0.091783091	0.00022739751
0.12712169	3.8545177	0.075404108	0.00022740323
0.12731864	3.2686625	0.064435944	0.00022739751
0.12751557	2.6256251	0.051487844	0.00022739751
0.1277125	2.0976923	0.041126534	0.00022739751
0.12790944	1.6589416	0.032593071	0.00022739751
0.12810637	1.2272203	0.024055198	0.00022739751
0.1283033	0.89459562	0.0175079	0.00022739751
0.12850024	0.61632812	0.012061273	0.00022739751
0.12869717	0.47304016	0.0092459228	0.00022738535
0.12889411	0.36611602	0.0071715033	0.00022739751
0.12909104	0.35032332	0.0068280455	0.00022740323
0.12928799	0.29562885	0.0057845465	0.00022739751
0.12948492	0.28192496	0.0054838583	0.00022739751
0.12968186	0.28467712	0.0055607865	0.00022738535
0.12987879	0.24181265	0.0047147516	0.00022738535
0.13007572	0.2220961	0.0043161791	0.00022738535
0.13027266	0.21879756	0.0042639887	0.00022738535
0.13046959	0.21693122	0.0042132861	0.00022738535
0.13066652	0.22298066	0.0043382458	0.00022738535
0.13086346	0.18790171	0.0036496089	0.00022739751
0.13106039	0.18454614	0.0035701827	0.00022740323
0.13125734	0.20342205	0.0039624395	0.00022738535
0.13145427	0.17054845	0.0033015322	0.00022738535
0.13165121	0.17627119	0.003417064	0.00022738535
0.13184814	0.16822781	0.0032524492	0.00022738535
0.13204508	0.1627907	0.0031489574	0.00022738535
0.13224201	0.16163142	0.0031371228	0.00022738535
0.13243894	0.14835575	0.0028638558	0.00022738535
0.13263588	0.14828613	0.0028583272	0.00022738535
0.13283281	0.14061332	0.0027153282	0.00022738535
0.13302974	0.15568863	0.0030078341	0.00022739106
0.13322669	0.12574627	0.0024250329	0.00022738535
0.13342363	0.13639733	0.0026220214	0.00022738535
0.13362056	0.1448199	0.0027867907	0.00022738535
0.13381749	0.13641447	0.0026298417	0.00022737318
0.13401443	0.12165178	0.0023423978	0.00022737318
0.13421136	0.12801485	0.0024621475	0.00022738535
0.1344083	0.12380251	0.0023724607	0.00022737318
0.13460523	0.12195122	0.0023404071	0.00022737318
0.13480216	0.12490706	0.0024044996	0.00022737318
0.1349991	0.12185185	0.0023409955	0.0002273789
0.13519605	0.12148851	0.0023165715	0.00022737318
0.13539298	0.1203258	0.0023114032	0.00022737318
0.13558991	0.12161172	0.0023236799	0.00022737318
0.13578685	0.10915105	0.0020884699	0.00022737318
0.13598378	0.12413035	0.0023715999	0.00022737318
0.13618071	0.10861561	0.002080054	0.00022737318
0.13637765	0.092640057	0.0017688066	0.00022737318
0.13657458	0.11143588	0.0021261531	0.00022737318
0.13677152	0.11042274	0.0021038468	0.00022737318
0.13696845	0.10828488	0.0020605803	0.00022737318
0.13716538	0.096750639	0.0018449021	0.0002273789
0.13736233	0.099524334	0.0018999225	0.00022737318
0.13755926	0.10729769	0.0020357755	0.00022737318
0.1377562	0.10779315	0.002053363	0.00022737318
0.13795313	0.10304789	0.0019591686	0.00022736102
0.13815007	0.094618998	0.0017944505	0.00022736102
0.138347	0.10369834	0.0019709014	0.00022737318
0.13854393	0.10107914	0.0019134213	0.00022737318
0.13874087	0.10327273	0.0019654136	0.00022736102
0.1389378	0.084476538	0.0016013464	0.00022736102
0.13913473	0.084557503	0.0015969628	0.00022736673
0.13933168	0.091301225	0.0017273389	0.00022737318
0.13952862	0.086175941	0.0016289296	0.00022737318
0.13972555	0.1028343	0.0019564875	0.00022736102
0.13992248	0.089807555	0.0016917066	0.00022736102
0.14011942	0.091789171	0.0017344246	0.00022736102
0.14031635	0.087267525	0.0016468451	0.00022737318
0.14051329	0.088119872	0.0016606851	0.00022736102
0.14071022	0.090060994	0.0017021559	0.00022736102
0.14090715	0.086817861	0.0016305908	0.00022736102
0.14110409	0.085326672	0.0016085797	0.00022736673
0.14130104	0.097927094	0.0018477147	0.00022736102
0.14149797	0.080793761	0.001517268	0.00022736102
0.1416949	0.082298689	0.001546517	0.00022734885
0.14189184	0.087279148	0.0016370539	0.00022736102
0.14208877	0.071785711	0.0013531822	0.00022736102
0.1422857	0.086494148	0.0016248622	0.00022736102
0.14248264	0.083889082	0.0015679289	0.00022736102
0.14267957	0.08439716	0.0015855262	0.00022736102
0.14287651	0.082249559	0.0015383796	0.00022736102
0.14307344	0.071832977	0.0013476037	0.00022735457
0.14327039	0.085734367	0.00160347	0.00022736102
0.14346732	0.080577061	0.0015080265	0.00022734885
0.14366426	0.082836084	0.0015482722	0.00022734885
0.14386119	0.074412078	0.0013904717	0.00022736102
0.14405812	0.086865149	0.0016221282	0.00022734885
0.14425506	0.098011859	0.0018268641	0.00022734885
0.14445199	0.08277797	0.0015464756	0.00022734885
0.14464892	0.078624077	0.0014694	0.00022734885
0.14484586	0.078554049	0.0014609665	0.00022734885
0.14504279	0.078800559	0.0014676186	0.00022735457
0.14523974	0.088804424	0.0016473844	0.00022734885
0.14543667	0.08277797	0.0015442688	0.00022733668
0.14563361	0.085387021	0.0015844537	0.00022734885
0.14583054	0.085505739	0.0015891083	0.00022734885
0.14602748	0.066758908	0.0012363283	0.00022734885
0.14622441	0.076497056	0.0014197128	0.00022733668
0.14642134	0.0829302	0.0015380851	0.00022734885
0.14661828	0.076790631	0.0014215417	0.00022733668
0.14681521	0.067937605	0.0012614368	0.00022733668
0.14701214	0.064160056	0.0011881415	0.0002273424
0.14720909	0.069927663	0.0012943384	0.00022733668
0.14740603	0.075146504	0.0013919076	0.00022733668
0.14760296	0.080040872	0.0014737229	0.00022733668
0.14779989	0.082328625	0.0015245941	0.00022733668
0.14799683	0.072338961	0.0013392399	0.00022733668
0.14819376	0.078640111	0.0014539727	0.00022733668
0.1483907	0.07771311	0.0014345549	0.00022733668
0.14858763	0.07079646	0.0013026309	0.00022733668
0.14878456	0.072483681	0.0013399108	0.00022733668
0.1489815	0.070847459	0.0013012642	0.0002273424
0.14917845	0.07018739	0.0012920428	0.00022733668
0.14937538	0.06514325	0.0011995493	0.00022733668
0.14957231	0.068066373	0.0012492544	0.00022733668
0.14976925	0.053767122	0.00099159614	0.00022733668
0.14996618	0.072463766	0.001327003	0.00022733668
0.15016311	0.066101693	0.0012136627	0.00022732452
0.15036005	0.063923836	0.0011753587	0.00022732452
0.15055698	0.06671159	0.0012212635	0.00022733668
0.15075392	0.061862677	0.001137173	0.00022733668
0.15095085	0.070781618	0.0012864586	0.00022733024
0.1511478	0.068373188	0.0012486327	0.00022732452
0.15134473	0.072032467	0.0013186584	0.00022733668
0.15154167	0.069439784	0.0012683371	0.00022732452
0.1517386	0.068627454	0.0012585259	0.00022732452
0.15193553	0.062290691	0.0011367216	0.00022732452
0.15213247	0.062184874	0.0011367335	0.00022733668
0.1523294	0.053637277	0.0009789241	0.00022732452
0.15252633	0.064978339	0.0011828842	0.00022732452
0.15272327	0.05955169	0.0010856523	0.00022732452
0.1529202	0.068068065	0.0012397458	0.00022733024
0.15311715	0.065392353	0.0011942403	0.00022732452
0.15331408	0.054170821	0.00098433322	0.00022732452
0.15351102	0.062832445	0.0011424331	0.00022732452
0.15370795	0.054242928	0.00098637422	0.00022731235
0.15390489	0.067554079	0.0012290522	0.00022732452
0.15410182	0.071121402	0.0012902408	0.00022732452
0.15429875	0.059800666	0.0010868693	0.00022732452
0.15449569	0.059428953	0.0010795314	0.00022731235
0.15469262	0.061548643	0.001116403	0.00022731235
0.15488955	0.060935441	0.0011025782	0.00022731809
0.1550865	0.059617918	0.0010788169	0.00022732452
0.15528344	0.074552685	0.0013538497	0.00022731235
0.15548037	0.071215637	0.0012928623	0.00022731235
0.1556773	0.064262293	0.0011603391	0.00022731235
0.15587424	0.067215815	0.001216915	0.00022731235
0.15607117	0.078002609	0.0014059087	0.00022731235
0.1562681	0.060006592	0.0010863089	0.00022731235
0.15646504	0.056833114	0.0010269068	0.00022732452
0.15666197	0.049051668	0.00088369177	0.00022731235
0.15685891	0.060150377	0.0010841542	0.00022731809
0.15705585	0.063621536	0.0011457823	0.00022731235
0.15725279	0.054027505	0.0009744034	0.00022731235
0.15744972	0.058842652	0.001057775	0.00022731235
0.15764666	0.060546875	0.001089097	0.00022731235
0.15784359	0.053114753	0.00095846294	0.00022731235
0.15804052	0.063229568	0.0011351489	0.00022731235
0.15823746	0.053763442	0.00096730341	0.00022731235
0.15843439	0.065035418	0.0011633766	0.00022731235
0.15863132	0.058041506	0.0010415514	0.00022730019
0.15882826	0.057980455	0.0010430655	0.00022731809
0.15902521	0.052359406	0.00093790801	0.00022730019
0.15922214	0.066083573	0.0011859781	0.00022730019
0.15941907	0.050994229	0.00090996176	0.00022731235
0.15961601	0.04564584	0.00081783318	0.00022730019
0.15981294	0.049903411	0.00089192798	0.00022730019
0.16000988	0.050869286	0.00090953289	0.00022730019
0.16020681	0.059903383	0.0010713736	0.00022730019
0.16040374	0.050657261	0.00090352347	0.00022730019
0.16060068	0.049967762	0.00089391635	0.00022730019
0.16079761	0.066347688	0.0011814267	0.00022730592
0.16099456	0.048484847	0.00086228264	0.00022730019
0.16119149	0.054071452	0.00096645928	0.00022730019
0.16138843	0.055964183	0.00099730666	0.00022730019
0.16158536	0.048702341	0.0008682434	0.00022730019
0.16178229	0.061646011	0.0010955315	0.00022728802
0.16197923	0.047862157	0.00085135788	0.00022728802
0.16217616	0.037825812	0.0006709359	0.00022728802
0.1623731	0.053167783	0.00094495044	0.00022728802
0.16257003	0.047286578	0.00083900685	0.00022728802
0.16276696	0.052096568	0.00092524395	0.00022730592
0.16296391	0.045425668	0.00080616208	0.00022728802
0.16316085	0.05156596	0.0009135289	0.00022730019
0.16335778	0.05156596	0.00091363292	0.00022728802
0.16355471	0.055152852	0.00097553525	0.00022728802
0.16375165	0.053582955	0.0009593438	0.00022728802
0.16394858	0.045127533	0.00081262994	0.00022728802
0.16414551	0.044074439	0.00079319061	0.00022728802
0.16434245	0.049239922	0.00089153333	0.00022728802
0.16453938	0.047872342	0.00086925237	0.00022728802
0.16473632	0.048112262	0.00087592372	0.00022729376
0.16493326	0.045822103	0.00083758641	0.00022728802
0.1651302	0.057027843	0.0010409032	0.00022727586
0.16532713	0.05745554	0.0010589447	0.00022728802
0.16552407	0.054163847	0.00099298579	0.00022727586
0.165721	0.046779662	0.00085766678	0.00022728802
0.16591793	0.056642637	0.0010455825	0.00022727586
0.16611487	0.052108329	0.00096095121	0.00022727586
0.1663118	0.051041666	0.00094727805	0.00022728802
0.16650873	0.038157441	0.0007035879	0.00022728802
0.16670567	0.050637271	0.0009361725	0.00022728159
0.16690262	0.045154568	0.00083795434	0.00022727586
0.16709955	0.037965864	0.00070494571	0.00022727586
0.16729648	0.047050562	0.00087766716	0.00022727586
0.16749342	0.052924789	0.00098397036	0.00022727586
0.16769035	0.048618399	0.00090568082	0.00022727586
0.16788729	0.054025423	0.0010111412	0.00022727586
0.16808422	0.046592489	0.00086517143	0.00022727586
0.16828115	0.046758767	0.00087600347	0.00022727586
0.16847809	0.04812083	0.00089794875	0.00022726369
0.16867502	0.056590259	0.0010669219	0.00022728159
0.16887197	0.049308266	0.00092483481	0.00022727586
0.1690689	0.044138417	0.00082564668	0.00022726369
0.16926584	0.052594174	0.0009871904	0.00022727586
0.16946277	0.043091167	0.00080946047	0.00022727586
0.1696597	0.049262855	0.00093035738	0.00022726369
0.16985664	0.040969007	0.00076939678	0.00022726369
0.17005357	0.043944266	0.00082655385	0.00022727586
0.17025051	0.054976642	0.0010377873	0.00022726369
0.17044744	0.055575475	0.0010485194	0.00022726369
0.17064437	0.046486486	0.00087839272	0.00022726943
0.17084132	0.044996399	0.00084967539	0.00022727586
0.17103826	0.050637525	0.00096263876	0.00022726369
0.17123519	0.046326458	0.00087728311	0.00022726369
0.17143212	0.046092905	0.00087076391	0.00022726369
0.17162906	0.040897574	0.00077388168	0.00022726369
0.17182599	0.051245037	0.00096921774	0.00022726369
0.17202292	0.041605301	0.00079449877	0.00022726369
0.17221986	0.044646099	0.00084649294	0.00022726369
0.17241679	0.044112287	0.00083829043	0.00022726369
0.17261373	0.053226393	0.0010122621	0.00022725726
0.17281067	0.046232253	0.00087789696	0.00022726369
0.17300761	0.045487896	0.00086701527	0.00022726369
0.17320454	0.044096209	0.00083771662	0.00022725153
0.17340147	0.050590843	0.00096771371	0.00022725153
0.17359841	0.051603392	0.00098675373	0.00022725153
0.17379534	0.046272494	0.00088270876	0.00022726369
0.17399228	0.041437477	0.00078913342	0.00022726369
0.17418921	0.042888563	0.00081711414	0.00022725153
0.17438614	0.043542985	0.00083570462	0.00022725153
0.17458308	0.043510325	0.00083126331	0.00022725726
0.17478003	0.046279155	0.00088627142	0.00022725153
0.17497696	0.043622922	0.00083467428	0.00022725153
0.17517389	0.041146215	0.0007847629	0.00022725153
0.17537083	0.036343198	0.0006993693	0.00022723936
0.17556776	0.038035452	0.000726934	0.00022723936
0.17576469	0.039493293	0.00075809751	0.00022723936
0.17596163	0.044095665	0.00084815768	0.00022725153
0.17615856	0.048608534	0.0009318901	0.00022725153
0.1763555	0.045403797	0.00087111245	0.00022725153
0.17655243	0.053823311	0.0010327509	0.00022724509
0.17674938	0.037190083	0.00071670715	0.00022723936
0.17694631	0.035620548	0.0006856196	0.00022723936
0.17714325	0.043396931	0.00083547353	0.00022725153
0.17734018	0.033796471	0.00065122731	0.00022723936
0.17753711	0.040535513	0.00077778805	0.00022723936
0.17773405	0.033809166	0.00065135013	0.00022723936
0.17793098	0.046415094	0.00089754455	0.00022723936
0.17812791	0.04577861	0.00088294101	0.00022723936
0.17832485	0.044753667	0.00086366874	0.00022723936
0.17852178	0.04704554	0.00090849755	0.00022724509
0.17871873	0.039260097	0.00075841561	0.00022723936
0.17891566	0.050790068	0.00098124263	0.00022723936
0.1791126	0.043067623	0.00083311828	0.00022722721
0.17930953	0.044167612	0.00085356442	0.00022723936
0.17950647	0.037528429	0.00072643626	0.00022723936
0.1797034	0.034782607	0.00067203341	0.00022723936
0.17990033	0.047529235	0.00091809896	0.00022723936
0.18009727	0.045247149	0.00087786961	0.00022722721
0.1802942	0.031048845	0.00060032	0.00022722721
0.18049113	0.035208572	0.00068449962	0.00022723294
0.18068808	0.038272072	0.00074086594	0.00022722721
0.18088502	0.039408866	0.00076308782	0.00022722721
0.18108195	0.038490854	0.00074715441	0.00022722721
0.18127888	0.03686811	0.0007145775	0.00022722721
0.18147582	0.038549617	0.00074908917	0.00022722721
0.18167275	0.040971167	0.0007941089	0.00022722721
0.18186969	0.035632186	0.00069367542	0.00022722721
0.18206662	0.033742331	0.00065665768	0.00022722721
0.18226355	0.035579108	0.00068800343	0.00022721505
0.18246049	0.032220945	0.00062695844	0.00022723294
0.18265744	0.035891563	0.00069692766	0.00022721505
0.18285437	0.042659491	0.00083193375	0.00022722721
0.1830513	0.03539823	0.00068995601	0.00022722721
0.18324824	0.040761903	0.00079110701	0.00022721505
0.18344517	0.036126059	0.00070376974	0.00022721505
0.1836421	0.039877299	0.00077659037	0.00022721505
0.18383904	0.035	0.00068242237	0.00022721505
0.18403597	0.041506533	0.000809516	0.00022721505
0.18423291	0.046171606	0.00090143393	0.00022721505
0.18442984	0.042231694	0.00082648726	0.00022722078
0.18462679	0.032592025	0.00063411304	0.00022721505
0.18482372	0.037022755	0.00072292209	0.00022721505
0.18502066	0.040737893	0.00079450529	0.00022721505
0.18521759	0.046403714	0.00090830441	0.00022721505
0.18541452	0.041053448	0.00080361095	0.00022721505
0.18561146	0.039336674	0.00076825119	0.00022721505
0.18580839	0.043562066	0.00085107516	0.00022721505
0.18600532	0.036004648	0.00070400472	0.00022720288
0.18620226	0.040357005	0.00079057325	0.00022721505
0.18639919	0.036793184	0.00071975728	0.00022722078
0.18659614	0.03992248	0.00078185304	0.00022720288
0.18679307	0.032371294	0.00063499517	0.00022720288
0.18699001	0.03942791	0.00077077589	0.00022720288
0.18718694	0.03461688	0.00067856314	0.00022720288
0.18738388	0.042242702	0.00082316622	0.00022720288
0.18758081	0.048254218	0.00095104123	0.00022721505
0.18777774	0.038087834	0.00074639084	0.00022720288
0.18797468	0.045171339	0.00088697532	0.00022720288
0.18817161	0.046765395	0.00091894576	0.00022719071
0.18836854	0.045665633	0.00089392567	0.00022720861
0.18856549	0.046026751	0.00090843061	0.00022719071
0.18876243	0.0447645	0.0008787025	0.00022720288
0.18895936	0.043274853	0.00084965298	0.00022720288
0.18915629	0.051973429	0.0010229876	0.00022719071
0.18935323	0.034752049	0.00068193086	0.00022719071
0.18955016	0.042761866	0.00084231677	0.00022720288
0.1897471	0.045860864	0.00089986087	0.00022719071
0.18994403	0.048904538	0.00096275756	0.00022720288
0.19014096	0.04253643	0.00083939906	0.00022719071
0.1903379	0.043207474	0.00084801711	0.00022719646
0.19053484	0.050413549	0.00099591888	0.00022719071
0.19073178	0.050623052	0.0009941227	0.00022719071
0.19092871	0.043666404	0.0008616363	0.00022719071
0.19112565	0.039130434	0.0007733705	0.00022719071
0.19132258	0.036243182	0.00071093003	0.00022719071
0.19151951	0.03977944	0.0007842902	0.00022719071
0.19171645	0.040062845	0.0007896251	0.00022719071
0.19191338	0.036628593	0.0007218786	0.00022717856
0.19211031	0.032941177	0.00064782047	0.00022719071
0.19230725	0.037691403	0.00074227108	0.00022719646
0.1925042	0.037316397	0.00073909684	0.00022719071
0.19270113	0.039339103	0.00077571213	0.00022719071
0.19289806	0.029933045	0.00058982603	0.00022719071
0.193095	0.032510772	0.00063891592	0.00022717856
0.19329193	0.035728462	0.00070724799	0.00022719071
0.19348887	0.034414556	0.00068056735	0.00022717856
0.1936858	0.036177743	0.00071278919	0.00022717856
0.19388273	0.0394633	0.00077962561	0.00022717856
0.19407967	0.035601266	0.00070347398	0.00022717856
0.1942766	0.03467517	0.00068785337	0.0002271843
0.19447355	0.025039123	0.00049099006	0.00022717856
0.19467048	0.03686088	0.00072935532	0.00022717856
0.19486742	0.036392406	0.00071922957	0.0002271664
0.19506435	0.036551449	0.00072377687	0.0002271664
0.19526128	0.034702834	0.00068876898	0.0002271664
0.19545822	0.034860946	0.00068513909	0.0002271664
0.19565515	0.041249499	0.00082053733	0.0002271664
0.19585209	0.03888889	0.00077046995	0.0002271664
0.19604902	0.036817104	0.00072797091	0.0002271664
0.19624595	0.028685259	0.0005679052	0.00022717213
0.1964429	0.037037037	0.00073030917	0.00022717856
0.19663984	0.030849358	0.00061284716	0.0002271664
0.19683677	0.02607665	0.00051400927	0.0002271664
0.1970337	0.033945687	0.00067384215	0.0002271664
0.19723064	0.031386573	0.00062105258	0.0002271664
0.19742757	0.035345513	0.00069956516	0.0002271664
0.1976245	0.036531512	0.00072752876	0.00022715423
0.19782144	0.028899446	0.0005708416	0.0002271664
0.19801837	0.030351438	0.00060149626	0.0002271664
0.19821531	0.039090548	0.00077630789	0.00022715998
0.19841225	0.033439491	0.00066257769	0.0002271664
0.19860919	0.03282626	0.00065240992	0.00022715423
0.19880612	0.03804994	0.0007528062	0.00022715423
0.19900306	0.03699236	0.00073726708	0.00022715423
0.19919999	0.035101715	0.00069683359	0.00022715423
0.19939692	0.030677291	0.00060793443	0.00022715423
0.19959386	0.039919354	0.0007967971	0.0002271664
0.19979079	0.037022293	0.00073432387	0.00022715423
0.19998772	0.043286573	0.00086200319	0.00022715423
0.20018466	0.02830941	0.00056083628	0.00022715998
0.20038161	0.03256936	0.00064827182	0.00022715423
0.20057854	0.040416166	0.00080407585	0.00022715423
0.20077547	0.030363563	0.00060259836	0.00022715423
0.20097241	0.031816352	0.00063395721	0.00022715423
0.20116934	0.030750798	0.00061001664	0.00022715423
0.20136628	0.034607645	0.0006895737	0.00022714208
0.20156321	0.03042434	0.00060451496	0.00022715423
0.20176014	0.029020555	0.00057811948	0.00022714208
0.20195708	0.038430743	0.00076464086	0.00022715423
0.20215401	0.030485358	0.00060580205	0.00022715998
0.20235096	0.036649216	0.00073095865	0.00022714208
0.20254789	0.038015205	0.00075583172	0.00022714208
0.20274483	0.042190671	0.00084491097	0.00022714208
0.20294176	0.034413766	0.0006834112	0.00022714208
0.20313869	0.036378335	0.00072672538	0.00022714208
0.20333563	0.032727271	0.00065339694	0.00022714208
0.20353256	0.037037037	0.00073441851	0.00022712992
0.2037295	0.033712428	0.00067466946	0.00022712992
0.20392643	0.032038447	0.00063615141	0.00022714208
0.20412336	0.031655844	0.00063290785	0.00022714782
0.20432031	0.029423619	0.00058622123	0.00022714208
0.20451725	0.034883723	0.00069388322	0.00022714208
0.20471418	0.03168156	0.00063389092	0.00022712992
0.20491111	0.031587366	0.00062712468	0.00022714208
0.20510805	0.03331979	0.00066697889	0.00022712992
0.20530498	0.027059773	0.00053899229	0.00022712992
0.20550191	0.027699718	0.00055036333	0.00022712992
0.20569885	0.032244898	0.000647126	0.00022712992
0.20589578	0.032477949	0.00064554409	0.00022712992
0.20609272	0.027291242	0.0005462952	0.00022713565
0.20628966	0.030229745	0.00060253276	0.00022712992
0.2064866	0.035294119	0.00070644956	0.00022711777
0.20668353	0.03495935	0.0007001136	0.00022712992
0.20688047	0.034649476	0.00069082447	0.00022712992
0.2070774	0.035656404	0.0007129517	0.00022711777
0.20727433	0.036246475	0.00072295807	0.00022711777
0.20747127	0.033401221	0.00066942588	0.00022711777
0.2076682	0.023964256	0.0004785365	0.00022712992
0.20786513	0.029911075	0.00059662585	0.00022712992
0.20806207	0.031758957	0.00063579081	0.0002271235
0.20825902	0.030682277	0.00061178964	0.00022711777
0.20845595	0.030562347	0.00061250542	0.00022711777
0.20865288	0.032727271	0.00065329595	0.00022711777
0.20884982	0.032258064	0.00064731203	0.00022711777
0.20904675	0.030512612	0.00061079016	0.00022711777
0.20924369	0.027586207	0.00055091153	0.0002271056
0.20944062	0.037667073	0.00075350498	0.00022711777
0.20963755	0.029185245	0.00058316259	0.00022711777
0.20983449	0.029605264	0.00059579831	0.00022711777
0.21003142	0.031655844	0.00063301349	0.00022711133
0.21022837	0.029723126	0.00059530948	0.00022711777
0.2104253	0.033414833	0.00066973409	0.00022711777
0.21062224	0.02579605	0.00051329663	0.0002271056
0.21081917	0.034610629	0.00069769344	0.0002271056
0.2110161	0.025101215	0.00050054537	0.0002271056
0.21121304	0.027280129	0.00054583786	0.0002271056
0.21140997	0.027721157	0.00055532588	0.0002271056
0.2116069	0.03145425	0.00063074642	0.0002271056
0.21180384	0.0249693	0.00050057494	0.0002271056
0.21200077	0.030707071	0.00061274681	0.00022711133
0.21219772	0.035802469	0.0007215761	0.00022709343
0.21239465	0.026294166	0.00052810635	0.0002271056
0.21259159	0.032087732	0.0006419823	0.0002271056
0.21278852	0.029387755	0.00058912812	0.0002271056
0.21298546	0.032061689	0.00064161781	0.00022709343
0.21318239	0.036716171	0.00074122415	0.00022709343
0.21337932	0.028814934	0.00057592767	0.00022709343
0.21357626	0.034327749	0.00068955228	0.0002271056
0.21377319	0.029715229	0.00059900404	0.0002271056
0.21397012	0.031339031	0.00062696083	0.00022709918
0.21416707	0.021659175	0.00043315784	0.00022709343
0.21436401	0.032205462	0.0006452041	0.00022709343
0.21456094	0.03944125	0.00079369068	0.00022709343
0.21475787	0.029967159	0.00060231233	0.00022708128
0.21495481	0.033919085	0.00068068277	0.00022709343
0.21515174	0.03768947	0.00075784529	0.00022709343
0.21534868	0.03356529	0.00067405956	0.00022708128
0.21554561	0.036640592	0.00073827483	0.00022709343
0.21574254	0.03390523	0.00068036589	0.00022708128
0.21593948	0.03292181	0.00066327659	0.00022709918
0.21613643	0.03407225	0.00068570295	0.00022708128
0.21633336	0.027470274	0.0005513053	0.00022708128
0.21653029	0.033278555	0.00067008147	0.00022708128
0.21672723	0.030599754	0.00061340898	0.00022709343
0.21692416	0.026391752	0.00053118158	0.00022708128
0.21712109	0.028747434	0.00057815516	0.00022708128
0.21731803	0.030390143	0.00061124552	0.00022708128
0.21751496	0.033758748	0.00067989639	0.00022708128
0.2177119	0.029735234	0.00059544627	0.00022708128
0.21790883	0.03115912	0.00063042145	0.00022708702
0.21810578	0.030637255	0.0006143151	0.00022708128
0.21830271	0.033884298	0.00068410608	0.00022708128
0.21849965	0.024279835	0.00048773564	0.00022706912
0.21869658	0.029459901	0.00059129921	0.00022708128
0.21889351	0.033167496	0.00067060988	0.00022706912
0.21909045	0.039737813	0.00079936505	0.00022706912
0.21928738	0.029302517	0.00059072848	0.00022706912
0.21948431	0.028465347	0.00057309674	0.00022706912
0.21968125	0.034936294	0.0007036553	0.00022706912
0.21987818	0.033842344	0.00068273279	0.00022707487
0.22007513	0.031518623	0.00063311774	0.00022706912
0.22027206	0.028618831	0.00057810935	0.00022706912
0.220469	0.02586207	0.00051885739	0.00022706912
0.22066593	0.031043047	0.00062690163	0.00022705697
0.22086287	0.041169204	0.0008294658	0.00022705697
0.2210598	0.029666254	0.00059728936	0.00022705697
0.22125673	0.031443939	0.00063471438	0.00022705697
0.22145367	0.036363635	0.00073369424	0.00022705697
0.2216506	0.037603308	0.00075969129	0.00022706912
0.22184753	0.031687241	0.00063765934	0.00022707487
0.22204448	0.033195022	0.00067133846	0.00022705697
0.22224142	0.030940594	0.0006231243	0.00022705697
0.22243835	0.029690722	0.00059791119	0.00022705697
0.22263528	0.027777778	0.0005609708	0.00022705697
0.22283222	0.028782895	0.0005789852	0.00022704482
0.22302915	0.032056618	0.00064917677	0.00022705697
0.22322609	0.0251962	0.00050727563	0.00022704482
0.22342302	0.03000411	0.00060308137	0.00022704482
0.22361995	0.035284352	0.00071399787	0.00022705697
0.22381689	0.034269199	0.00069165771	0.0002270627
0.22401384	0.027139874	0.00054987136	0.00022704482
0.22421077	0.032098766	0.00064591557	0.00022704482
0.2244077	0.026086956	0.00052523526	0.00022704482
0.22460464	0.025801081	0.00052121293	0.00022704482
0.22480157	0.030800821	0.00061957748	0.00022704482
0.2249985	0.019287212	0.00039013359	0.00022704482
0.22519544	0.023360657	0.00046811695	0.00022704482
0.22539237	0.024948025	0.00050399709	0.00022704482
0.22558931	0.033877037	0.00068728352	0.00022704482
0.22578624	0.030649776	0.00061424728	0.00022703838
0.22598319	0.034152437	0.00069203478	0.00022703265
0.22618012	0.027284002	0.00054973684	0.00022704482
0.22637706	0.027626622	0.00056012574	0.00022704482
0.22657399	0.02859511	0.00057776051	0.00022703265
0.22677092	0.031094527	0.00062812149	0.00022703265
0.22696786	0.026533997	0.00053548231	0.00022703265
0.22716479	0.027743271	0.00055992568	0.00022704482
0.22736172	0.033458803	0.00067978841	0.00022703265
0.22755866	0.02355372	0.00047437943	0.00022703265
0.22775559	0.02507313	0.00050793716	0.00022703265
0.22795253	0.029436152	0.00059453485	0.00022703838
0.22814947	0.022425249	0.00045156776	0.00022703265
0.22834641	0.024875622	0.00050166232	0.00022703265
0.22854334	0.023265475	0.0004697527	0.0002270205
0.22874027	0.029844472	0.00060694997	0.00022703265
0.22893721	0.025175402	0.00050692511	0.00022703265
0.22913414	0.028702162	0.00058038841	0.0002270205
0.22933108	0.029485051	0.00059601717	0.0002270205
0.22952801	0.020842018	0.00042047491	0.0002270205
0.22972494	0.025406081	0.00051362795	0.0002270205
0.22992188	0.038971808	0.00078882644	0.00022703838
0.23011883	0.042688083	0.00087265595	0.0002270205
0.23031576	0.040049545	0.00080940023	0.0002270205
0.23051269	0.03786933	0.00076823763	0.0002270205
0.23070963	0.037500001	0.00076012302	0.0002270205
0.23090656	0.042703152	0.0008647099	0.00022700834
0.23110349	0.046560403	0.00094894366	0.00022700834
0.23130043	0.041718815	0.00084750605	0.0002270205
0.23149736	0.03702163	0.00075030269	0.0002270205
0.2316943	0.037176274	0.00075481617	0.0002270205
0.23189123	0.02988792	0.00060458924	0.00022701408
0.23208818	0.040234704	0.00081884459	0.00022700834
0.23228511	0.034554537	0.0007003154	0.00022700834
0.23248205	0.034684498	0.0007042705	0.00022700834
0.23267898	0.024298282	0.00049238629	0.00022700834
0.23287591	0.030340815	0.00061373122	0.00022700834
0.23307285	0.035131745	0.00071371708	0.00022700834
0.23326978	0.03002502	0.00060756167	0.00022700834
0.23346671	0.025876461	0.00052405446	0.00022700834
0.23366365	0.035323802	0.00071957853	0.00022700834
0.23386058	0.035893153	0.00072785589	0.00022701408
0.23405753	0.025598679	0.00051536423	0.00022699618
0.23425446	0.03071098	0.00062476005	0.00022700834
0.2344514	0.033557046	0.00068246061	0.00022699618
0.23464833	0.030505642	0.00061838573	0.00022699618
0.23484527	0.029264214	0.00059320126	0.00022700834
0.2350422	0.01923077	0.00038898623	0.00022700834
0.23523913	0.028979421	0.00058881962	0.00022699618
0.23543607	0.029975021	0.00060652068	0.00022699618
0.235633	0.033862878	0.00068695896	0.00022699618
0.23582993	0.02974445	0.00060341338	0.00022700192
0.23602688	0.033684209	0.00068601756	0.00022698403
0.23622382	0.032930389	0.00066711404	0.00022699618
0.23642075	0.033806343	0.00068545144	0.00022699618
0.23661768	0.025146689	0.00050988555	0.00022698403
0.23681462	0.02946128	0.00059920416	0.00022698403
0.23701155	0.035520267	0.00072056404	0.00022699618
0.23720849	0.041353382	0.00084029522	0.00022698403
0.23740542	0.033165406	0.00067383016	0.00022699618
0.23760235	0.030607967	0.00062197458	0.00022698403
0.23779929	0.026879461	0.00054583978	0.00022698977
0.23799624	0.026711185	0.00054085581	0.00022698403
0.23819317	0.022278268	0.00045169977	0.00022698403
0.2383901	0.031486146	0.00064014236	0.00022698403
0.23858704	0.024298282	0.00049223687	0.00022698403
0.23878397	0.025984911	0.00052707351	0.00022698403
0.2389809	0.028942954	0.00058783393	0.00022697187
0.23917784	0.03236654	0.00065861508	0.00022697187
0.23937477	0.026116259	0.00053121627	0.00022698403
0.23957171	0.029731993	0.00060339971	0.00022697187
0.23976864	0.037531275	0.00076050218	0.00022697762
0.23996559	0.026105262	0.00053116202	0.00022697187
0.24016252	0.022419628	0.00045600638	0.00022697187
0.24035946	0.025990626	0.0005311672	0.00022697187
0.24055639	0.017328825	0.0003513142	0.00022697187
0.24075332	0.027683135	0.00056646625	0.00022697187
0.24095026	0.02960103	0.00060786883	0.00022697187
0.24114719	0.020851064	0.00042526011	0.00022697187
0.24134412	0.02783726	0.00057079131	0.00022697187
0.24154106	0.023727352	0.00048793576	0.00022697187
0.24173799	0.029779889	0.00061364949	0.00022696547
0.24193494	0.024739584	0.00051049725	0.00022697187
0.24213187	0.024526678	0.00050439493	0.00022695972
0.24232881	0.022737211	0.00047078074	0.00022697187
0.24252574	0.028858768	0.00059857755	0.00022695972
0.24272268	0.040174674	0.00083463523	0.00022695972
0.24291961	0.036547776	0.00076178554	0.00022695972
0.24311654	0.030896431	0.00063945551	0.00022695972
0.24331348	0.031541537	0.00065945706	0.00022695972
0.24351041	0.037918869	0.00079034397	0.00022695972
0.24370734	0.03697183	0.00076964055	0.00022696547
0.24390429	0.036476869	0.00076307741	0.00022695972
0.24410123	0.036225401	0.00076033623	0.00022695972
0.24429816	0.028419184	0.00059370795	0.00022694757
0.24449509	0.025125628	0.00053152425	0.00022694757
0.24469203	0.024423962	0.00051794754	0.00022695972
0.24488896	0.027647611	0.00059301971	0.00022694757
0.2450859	0.026328161	0.00056569866	0.00022694757
0.24528283	0.027922384	0.00060153101	0.00022694757
0.24547976	0.020982355	0.00045283171	0.00022694757
0.2456767	0.026467757	0.00057468348	0.0002269533
0.24587364	0.031746034	0.00069047202	0.00022694757
0.24607058	0.024283633	0.00052947953	0.0002269354
0.24626751	0.025678294	0.00055897317	0.00022694757
0.24646445	0.026095519	0.00057265401	0.00022694757
0.24666138	0.027518427	0.00060390792	0.00022694757
0.24685831	0.028120374	0.00061865628	0.0002269354
0.24705525	0.032786883	0.00072471215	0.0002269354
0.24725218	0.030454319	0.00067374465	0.0002269354
0.24744911	0.039215688	0.00087329355	0.00022694757
0.24764605	0.026486756	0.00058622204	0.00022694115
0.247843	0.022658611	0.00050263607	0.0002269354
0.24803993	0.028629856	0.00064065907	0.0002269354
0.24823686	0.021527423	0.00048082171	0.0002269354
0.2484338	0.019348269	0.00042999399	0.00022692325
0.24863073	0.029320987	0.00065829023	0.0002269354
0.24882767	0.025720164	0.00057692314	0.00022692325
0.2490246	0.022245215	0.00049906765	0.00022692325
0.24922153	0.022466039	0.00050623686	0.00022692325
0.24941847	0.021795537	0.00048926263	0.00022692325
0.2496154	0.028993146	0.00065865711	0.000226929
0.24981235	0.017423442	0.0003920983	0.00022692965
0.25000927	0.022454308	0.00050499465	0.00022692325
0.2502062	0.022933334	0.00052269723	0.0002269354
0.25040314	0.021186441	0.00048158655	0.0002269111
0.25060007	0.025959978	0.00059623434	0.0002269226
0.25079703	0.026709402	0.00061003136	0.0002269111
0.25099397	0.019881785	0.00045438396	0.0002269111
0.2511909	0.023331525	0.00053577573	0.0002269111
0.25138783	0.026386645	0.00060491246	0.0002269111
0.25158477	0.01907357	0.00043675402	0.0002269111
0.2517817	0.023471616	0.00054121099	0.0002269111
0.25197864	0.021917809	0.0005054411	0.0002269111
0.25217557	0.023822716	0.00055401662	0.0002269111
0.2523725	0.024149286	0.00055885309	0.0002269111
0.25256944	0.025569761	0.00059585302	0.0002269111
0.25276637	0.029983342	0.00069695245	0.0002269111
0.2529633	0.033500839	0.00078386662	0.0002268868
0.25316024	0.019707207	0.00046025679	0.0002269111
0.25335717	0.030130757	0.00071077654	0.0002269111
0.25355411	0.026362039	0.0006295208	0.0002269111
0.25375104	0.027075812	0.00065593037	0.0002269111
0.25394797	0.030193238	0.00073412311	0.0002268868
0.25414491	0.024570024	0.00060069864	0.0002269111
0.25434184	0.020872865	0.00051562529	0.0002269111
0.25453877	0.029296875	0.00073903962	0.0002269226
0.25473574	0.036937542	0.00094785722	0.0002268868
0.25493267	0.032697547	0.00084362633	0.0002269111
0.25512961	0.037552156	0.00098003075	0.0002269111
0.25532654	0.031227821	0.00082227786	0.0002269111
0.25552347	0.034231611	0.00091216527	0.0002268868
0.25572041	0.030303031	0.0008217686	0.0002269111
0.25591734	0.029983792	0.00084101228	0.0002269111
0.25611427	0.027515048	0.00079366058	0.0002268868
0.25631121	0.032876711	0.00097540393	0.0002268868
0.25650814	0.027332705	0.00082491594	0.0002268868
0.25670508	0.024201356	0.00073443446	0.0002268868
0.25690201	0.034883723	0.0011142627	0.0002268868
0.25709894	0.025813693	0.00084458344	0.0002268868
0.25729588	0.027154664	0.00091307546	0.0002268868
0.25749281	0.023980815	0.00080771354	0.0002268868
0.25768974	0.025157232	0.00086329342	0.0002268868
0.25788668	0.027166883	0.00095191901	0.0002268868
0.25808361	0.021361817	0.00075626327	0.0002268868
0.25828055	0.016415868	0.00057728845	0.0002268868
0.25847748	0.022889843	0.00083186169	0.00022689829
0.25867444	0.036390103	0.0013453336	0.00022686248
0.25887138	0.024464833	0.00091922464	0.00022686248
0.25906831	0.038580246	0.0014736654	0.00022686248
0.25926524	0.02852615	0.0011008729	0.0002268868
0.25946218	0.030100334	0.0011854201	0.00022686248
0.25965911	0.016977929	0.00066422817	0.0002268868
0.25985605	0.034662046	0.0014002541	0.0002268868
0.26005298	0.022569444	0.00089847081	0.00022686248
0.26024991	0.017482517	0.00068632094	0.00022686248
0.26044685	0.021428572	0.00085449801	0.0002268868
0.26064378	0.03208556	0.0013133483	0.00022686248
0.26084071	0.032374099	0.0013354862	0.00022686248
0.26103765	0.027624309	0.0011463313	0.00022686248
0.26123458	0.044444446	0.0018740511	0.00022686248
0.26143152	0.043396227	0.001841669	0.0002268868
0.26162845	0.040665433	0.0017097273	0.00022686248
0.26182538	0.032504778	0.0013802175	0.00022686248
0.26202232	0.045009784	0.0019337873	0.00022686248
0.26221925	0.019841271	0.00083927967	0.00022686248
0.26241618	0.032504778	0.0013700313	0.00022684968
0.26261315	0.037698414	0.0016264616	0.00022683818
0.26281008	0.030487806	0.0013165209	0.00022686248
0.26300701	0.02258727	0.00097689801	0.00022686248
0.26320395	0.036217302	0.0015803871	0.00022683818
0.26340088	0.044397462	0.0019943092	0.00022686248
0.26359782	0.025104603	0.0011005249	0.00022683818
0.26379475	0.03846154	0.0017296427	0.00022686248
0.26399168	0.044871796	0.0020215469	0.00022683818
0.26418862	0.034782607	0.0015653963	0.00022683818
0.26438555	0.0246085	0.0011008723	0.00022683818
0.26458248	0.034324944	0.0015881261	0.00022683818
0.26477942	0.033632286	0.0015329105	0.00022683818
0.26497635	0.032634031	0.0015200453	0.00022686248
0.26517329	0.039627038	0.0018582548	0.00022683818
0.26537022	0.036674816	0.0017541078	0.00022683818
0.26556715	0.03846154	0.0018280507	0.00022683818
0.26576409	0.049504951	0.0023972427	0.00022683818
0.26596102	0.027777778	0.0013326086	0.00022683818
0.26615795	0.031088082	0.0015169431	0.00022683818
0.26635489	0.017902814	0.00083929679	0.00022684968
0.26655185	0.058355439	0.0029275038	0.00022681388
0.26674879	0.032876711	0.001649846	0.00022683818
0.26694572	0.037837837	0.0018876494	0.00022683818
0.26714265	0.030136986	0.0015060966	0.00022681388
0.26733959	0.014124294	0.00067239488	0.00022681388
0.26753652	0.031428572	0.0016040413	0.00022681388
0.26773345	0.033232629	0.0017442605	0.00022683818
0.26793039	0.032835823	0.0017130825	0.00022683818
0.26812732	0.020710059	0.0010444629	0.00022683818
0.26832426	0.034375001	0.0018350631	0.00022683818
0.26852119	0.028571429	0.0015201655	0.00022683818
0.26871812	0.03215434	0.001732527	0.00022683818
0.26891506	0.0096463021	0.00044733656	0.00022681388
0.26911199	0.013468013	0.00067793543	0.00022683818
0.26930892	0.020134227	0.001066513	0.00022683818
0.26950586	0.013840831	0.00070631196	0.00022683818
0.26970279	0.024054984	0.0013077739	0.00022681388
0.26989973	0.021739131	0.0011966997	0.00022681388
0.27009666	0.0074906368	0.0003247603	0.00022681388
0.27029359	0.011450382	0.0005787008	0.00022684968
0.27049056	0.0036630037	0	0.00022681388
0.27068749	0	0	0.00022681388
0.27088442	0	0	0.00022681388
0.27108136	0.0083682006	0.00038355586	0.00022681388
0.27127829	0.0084033618	0.00038597916	0.00022681388
0.27147523	0	0	0.00022681388
0.27167216	0.011363637	0	0.00022681388
0.27186909	0.020408163	0	0.00022681388
0.27206603	0	0	0.00022681388
0.27226296	0	0	0.00022681388
