#   DataFileName=PAL30_65C_WAXS_08172017.tif
#   DataFileType=.tif
#   
#   DataFilePath=E:DATA:PAL30_08262017:
#   
#   Processed on=Wed, Jan 16, 2019,2:41:25 AM
#   Units=Arbitrary
#   SampleThickness=1
#   SampleTransmission=1
#   CorrectionFactor=1
#   SampleMeasurementTime=1
#   EmptyMeasurementTime=1
#   BackgroundMeasTime=1
#   SampleI0=1
#   EmptyI0=1
#   Nika_SampleToDetectorDistacne=1552.1
#   Nika_Wavelength=1.54
#   Nika_XrayEnergy=8.0509
#   Nika_PixelSizeX=0.075
#   Nika_PixelSizeY=0.075
#   Nika_HorizontalTilt=0
#   Nika_VerticalTilt=0
#   Nika_BeamCenterX=1540.3
#   Nika_BeamCenterY=830.17
#   Nika_BeamSizeX=0
#   Nika_BeamCenterY=830.17
#   CalibrationFormula=1*((Sa2D))
#   CurrentMaskFileName=PAL30_30C_WAXS_mask.hdf
#   QvectorMaxNumPnts=1
#   QvectorNumberPoints=1383
#   CircularAverage=1
#   PolarizationCorrection=None
#   UncertainityCalculationMethod=OldNikaMethod

0.0060065244	10.5	7.3484693	0.00022756745
0.00620346	8.1999998	1.6276773	0.00022756765
0.0064003952	6.2631578	0.82719678	0.00022756765
0.0065973303	6.3499999	0.70877469	0.00022756765
0.0067942655	8.2653065	0.83060181	0.00022756765
0.0069912006	11.607476	1.1025385	0.00022756745
0.0071881362	12.901639	1.1430453	0.00022756727
0.0073850714	14.549619	1.2441473	0.00022756727
0.0075820065	14.786207	1.2051057	0.00022756727
0.0077789417	13.551021	1.1000836	0.00022756745
0.0079758773	12.892406	1.0111969	0.00022756746
0.0081728119	11.723927	0.9050861	0.00022756707
0.0083697475	9.9606743	0.73721719	0.00022756671
0.0085666822	8.7875652	0.62433016	0.00022756783
0.0087636178	7.8769231	0.55719435	0.00022756783
0.0089605534	7.184834	0.48911569	0.00022756746
0.0091574881	6.3886461	0.41783953	0.00022756707
0.0093544237	5.6880002	0.35660478	0.00022756671
0.0095513584	5.2129278	0.31839547	0.00022756707
0.009748294	4.6911764	0.28205487	0.00022756707
0.0099452296	4.3104692	0.25671825	0.00022756595
0.010142164	3.9676259	0.23599668	0.00022756707
0.0103391	3.6262627	0.20866154	0.00022756671
0.010536035	3.6440678	0.21070144	0.00022756707
0.01073297	3.2105262	0.18257989	0.00022756783
0.010929906	2.9163988	0.16428968	0.00022756746
0.01112684	2.8594248	0.16068719	0.00022756783
0.011323776	2.5301204	0.13797735	0.00022756746
0.011520711	2.4664633	0.13534941	0.00022756707
0.011717646	2.2544379	0.12170483	0.00022756707
0.011914582	2.0233917	0.1088326	0.00022756746
0.012111517	1.9304348	0.10325065	0.00022756783
0.012308452	1.9010988	0.099181771	0.00022756671
0.012505387	1.7485876	0.092360966	0.00022756783
0.012702323	1.7063493	0.087212972	0.00022756783
0.012899258	1.6568365	0.085338131	0.00022756671
0.013096193	1.4633508	0.074497409	0.00022756707
0.013293128	1.4654732	0.073773369	0.00022756671
0.013490063	1.4613402	0.073863409	0.00022756707
0.013686999	1.2916666	0.063679382	0.00022756707
0.013883934	1.240876	0.060932554	0.00022756671
0.014080869	1.2057416	0.058709279	0.00022756707
0.014277805	1.12	0.054101963	0.00022756671
0.014474739	1.0898346	0.052702799	0.0002275663
0.014671675	0.9751693	0.046091359	0.00022756707
0.014868611	0.98409092	0.046701171	0.00022756671
0.015065545	0.90549451	0.042186383	0.0002275663
0.015262481	0.90772533	0.041877404	0.00022756671
0.015459416	0.82857144	0.038639896	0.00022756595
0.01565635	0.87206823	0.040085539	0.00022756707
0.015853286	0.74309981	0.034107495	0.00022756554
0.016050221	0.80206186	0.036311422	0.00022756707
0.016247157	0.6963563	0.031189831	0.00022756707
0.016444093	0.676	0.030144874	0.00022756483
0.016641026	0.72289157	0.032279924	0.00022756707
0.016837962	0.5991984	0.026704207	0.00022756707
0.017034898	0.67509729	0.029683361	0.00022756554
0.017231833	0.62332696	0.027137367	0.00022756554
0.017428769	0.61859584	0.02682752	0.00022756483
0.017625703	0.58878505	0.025374625	0.00022756554
0.017822638	0.5791434	0.024882801	0.00022756554
0.018019574	0.5165441	0.022076871	0.00022756554
0.018216509	0.48722628	0.020729907	0.00022756554
0.018413445	0.51699466	0.02180277	0.00022756483
0.018610379	0.49293286	0.020642914	0.00022756554
0.018807314	0.44502619	0.018529624	0.00022756554
0.01900425	0.43847486	0.018198147	0.00022756554
0.019201186	0.47027972	0.019591045	0.00022756554
0.019398121	0.44723618	0.018249348	0.00022756483
0.019595055	0.40677965	0.016694294	0.00022756554
0.019791991	0.45123968	0.018285263	0.00022756554
0.019988926	0.41322315	0.016754251	0.00022756554
0.020185862	0.39215687	0.015801491	0.00022756554
0.020382797	0.36305732	0.014436781	0.00022756483
0.020579731	0.35275081	0.014144923	0.00022756403
0.020776667	0.38871473	0.015352027	0.00022756403
0.020973602	0.34585288	0.01362711	0.00022756554
0.021170538	0.328125	0.012926447	0.00022756403
0.021367474	0.31674209	0.012262703	0.0002275633
0.021564407	0.34055728	0.013362247	0.00022756403
0.021761343	0.29745889	0.011460539	0.00022756403
0.021958278	0.34087482	0.013195715	0.00022756403
0.022155214	0.33480176	0.012793536	0.00022756403
0.02235215	0.34011629	0.012936133	0.0002275633
0.022549083	0.27165931	0.010377555	0.00022756403
0.022746019	0.28226951	0.010594149	0.00022756403
0.022942955	0.25824964	0.0097468412	0.00022756403
0.02313989	0.2857143	0.010712075	0.00022756403
0.023336826	0.23291492	0.0086664353	0.0002275633
0.02353376	0.26300985	0.0098271603	0.00022756403
0.023730695	0.28222525	0.01036345	0.00022756403
0.023927631	0.25241378	0.0093400385	0.0002275625
0.024124566	0.24262735	0.0088526085	0.00022756403
0.024321502	0.24664879	0.0090057654	0.00022756179
0.024518436	0.23489933	0.0085773114	0.0002275625
0.024715371	0.24769433	0.0089617232	0.0002275625
0.024912307	0.22457068	0.0081378277	0.0002275625
0.025109243	0.2314578	0.0082514379	0.0002275625
0.025306178	0.21086675	0.0075579179	0.00022756179
0.025503112	0.22988506	0.0081906784	0.0002275625
0.025700048	0.21728082	0.0077218711	0.0002275625
0.025896983	0.21246819	0.0075521171	0.0002275625
0.026093919	0.18965517	0.0066321171	0.00022756097
0.026290854	0.19602978	0.0068794647	0.00022756179
0.026487788	0.18780488	0.0065344265	0.0002275625
0.026684724	0.24327628	0.0084819878	0.00022756097
0.026881659	0.22168088	0.0077095814	0.0002275625
0.027078595	0.21479714	0.0073969262	0.00022756097
0.027275531	0.19374248	0.0066987756	0.00022756179
0.027472464	0.21420257	0.0072874394	0.00022756097
0.0276694	0.18676123	0.0063987351	0.00022756097
0.027866336	0.1937355	0.0065750876	0.00022756097
0.028063271	0.18953489	0.0064403838	0.00022756097
0.028260207	0.18181819	0.0061867544	0.00022756026
0.028457141	0.22222222	0.0074239736	0.00022756097
0.028654076	0.15664019	0.0052586677	0.00022756097
0.028851012	0.18008949	0.0060039875	0.00022756097
0.029047947	0.17917134	0.0059746788	0.00022756097
0.029244883	0.1687289	0.0056399829	0.00022756026
0.029441817	0.17320262	0.0056977803	0.00022756097
0.029638752	0.16373627	0.0054093422	0.00022755946
0.029835688	0.17583603	0.00575796	0.00022756097
0.030032624	0.16236559	0.0053053871	0.00022755946
0.030229559	0.1525974	0.0050026793	0.00022755875
0.030426493	0.17446809	0.0056729796	0.00022755946
0.030623429	0.14270501	0.0046386775	0.00022755946
0.030820364	0.14035088	0.0044924738	0.00022755946
0.0310173	0.15667719	0.0050641242	0.00022755946
0.031214235	0.17219917	0.0055262386	0.00022755946
0.031411171	0.14681725	0.004685868	0.00022755875
0.031608105	0.17166494	0.0055025453	0.00022755571
0.031805038	0.16076845	0.0050965864	0.00022756017
0.032001976	0.14762387	0.004677996	0.00022755875
0.03219891	0.14572865	0.0046031759	0.00022756017
0.032395847	0.15784216	0.0049735801	0.00022755875
0.032592781	0.14101291	0.0044286707	0.00022755875
0.032789715	0.15753424	0.0049115932	0.00022756017
0.032986652	0.1773399	0.0055505368	0.00022755571
0.033183586	0.14605647	0.0045421487	0.00022755713
0.033380523	0.13680154	0.0042310678	0.00022755875
0.033577457	0.13198459	0.0040811868	0.00022755571
0.033774391	0.14394662	0.0044296249	0.00022755713
0.033971328	0.14599237	0.0044943956	0.00022755571
0.034168262	0.13434248	0.0041172579	0.00022756017
0.0343652	0.15645617	0.0047887424	0.00022755571
0.034562133	0.16155989	0.004908782	0.00022755571
0.034759067	0.13079777	0.0039694179	0.00022756017
0.034956004	0.15185185	0.0046066605	0.00022755571
0.035152938	0.143379	0.0043198154	0.00022755713
0.035349876	0.13777372	0.0041482323	0.00022755571
0.035546809	0.13430128	0.0040321304	0.00022755571
0.035743743	0.14492753	0.0043477304	0.00022755713
0.035940681	0.14529148	0.0043379683	0.00022755571
0.036137614	0.13765542	0.0040891171	0.00022755713
0.036334552	0.12699823	0.0037719784	0.00022755266
0.036531486	0.14550264	0.0043075187	0.00022755266
0.036728419	0.13403881	0.0039674537	0.00022755713
0.036925357	0.12086956	0.0035509118	0.00022755571
0.037122291	0.13032146	0.0038289391	0.00022755713
0.037319228	0.12998267	0.0038126474	0.00022755571
0.037516162	0.12807465	0.0037165557	0.00022755266
0.037713096	0.14395887	0.0042019743	0.00022755713
0.037910033	0.12606473	0.0036671837	0.00022755266
0.038106967	0.13570823	0.0039398912	0.00022755409
0.038303904	0.14261603	0.0041311034	0.00022755266
0.038500838	0.13061564	0.0037557289	0.00022755266
0.038697772	0.11818182	0.0033851529	0.00022755409
0.038894709	0.13327815	0.0038220759	0.00022755266
0.039091643	0.12406948	0.0035558685	0.00022755409
0.03928858	0.12622951	0.0036025941	0.00022755266
0.039485514	0.12997563	0.0036922556	0.00022755266
0.039682448	0.10885459	0.0030906382	0.00022755409
0.039879385	0.10923695	0.0030847134	0.00022755266
0.040076319	0.116	0.0032692272	0.00022755409
0.040273257	0.11717496	0.0033080571	0.00022754962
0.04047019	0.13842481	0.0038928306	0.00022754962
0.040667124	0.1183479	0.0033243012	0.00022755409
0.040864062	0.1078968	0.0030060969	0.00022755266
0.041060995	0.10419907	0.0028947766	0.00022755409
0.041257933	0.13182527	0.0036703362	0.00022754962
0.041454867	0.12140078	0.0033762509	0.00022755266
0.0416518	0.11439689	0.0031791071	0.00022755409
0.041848738	0.11145038	0.0030684147	0.00022754962
0.042045671	0.12395437	0.0034075864	0.00022754801
0.042242609	0.10646388	0.0029251424	0.00022754657
0.042439543	0.13439636	0.0036932076	0.00022754353
0.042636476	0.11344854	0.0030992571	0.00022754801
0.042833414	0.11069277	0.0030270484	0.00022754657
0.043030348	0.11277072	0.0030723305	0.00022754801
0.043227285	0.105613	0.0028594851	0.00022754353
0.043424219	0.11053795	0.0029901692	0.00022754353
0.043621153	0.10808823	0.0029210888	0.00022754801
0.04381809	0.11143695	0.0030062567	0.00022754353
0.044015024	0.12143379	0.0032746086	0.00022754495
0.044211961	0.11956522	0.0032087963	0.00022754353
0.044408895	0.099280573	0.0026534994	0.00022754353
0.044605829	0.10057471	0.0026856249	0.00022754495
0.044802766	0.10401721	0.0027766612	0.00022754353
0.0449997	0.10421128	0.002774691	0.00022754495
0.045196638	0.11519434	0.0030533141	0.00022754353
0.045393571	0.10141844	0.0026915919	0.00022754353
0.045590505	0.11702873	0.0030881148	0.00022754495
0.045787442	0.12412342	0.0032778608	0.00022754048
0.045984376	0.12222222	0.0032111215	0.00022754191
0.046181314	0.12283137	0.0032264902	0.00022754353
0.046378247	0.097375691	0.0025492157	0.00022754048
0.046575181	0.11118785	0.0029122855	0.00022754191
0.046772119	0.10897876	0.0028423516	0.00022754353
0.046969052	0.11300204	0.0029391437	0.00022754495
0.04716599	0.10974778	0.0028559889	0.00022754048
0.047362924	0.10916442	0.0028245507	0.00022754048
0.047559857	0.096514747	0.0024892429	0.00022754495
0.047756795	0.11417058	0.0029495782	0.00022754048
0.047953729	0.10529846	0.0027179797	0.00022754495
0.048150666	0.11678832	0.0029990352	0.00022754048
0.0483476	0.11745189	0.0030150784	0.00022754048
0.048544534	0.10019647	0.0025546625	0.00022754191
0.048741471	0.12854318	0.0032901471	0.00022753744
0.048938405	0.11335505	0.0028831833	0.00022754191
0.049135342	0.11074705	0.0028251475	0.00022754048
0.049332276	0.10045366	0.0025465568	0.00022753744
0.04952921	0.10996119	0.0027870589	0.00022753887
0.049726147	0.098001286	0.0024781132	0.00022753744
0.049923081	0.096263461	0.0024125823	0.00022754191
0.050120018	0.11189258	0.0028188869	0.00022753744
0.050316952	0.10236724	0.0025797831	0.00022753744
0.050513886	0.12063492	0.0030297101	0.00022753887
0.050710823	0.095751427	0.0024011827	0.00022753744
0.050907757	0.11235257	0.002789245	0.00022753887
0.051104695	0.10618363	0.0026440986	0.00022753744
0.051301628	0.1267166	0.0031562636	0.00022753744
0.051498562	0.11423221	0.0028447933	0.00022753887
0.0516955	0.1144094	0.0028355015	0.00022753744
0.051892433	0.094859242	0.0023374588	0.00022753887
0.052089371	0.078395061	0.0019379867	0.0002275344
0.052286305	0.11718275	0.0028775057	0.00022753744
0.052483238	0.089969605	0.0022090885	0.00022753583
0.052680176	0.099696048	0.0024485614	0.0002275344
0.052877109	0.10273556	0.0025236965	0.00022753887
0.053074047	0.10247137	0.0025062808	0.0002275344
0.053270981	0.096716419	0.0023541159	0.00022753744
0.053467914	0.10023867	0.0024381748	0.00022753887
0.053664852	0.095238097	0.0023438102	0.0002275344
0.053861786	0.12321982	0.0030561271	0.00022753583
0.054058723	0.097758405	0.0024289878	0.0002275344
0.054255657	0.090909094	0.0022505904	0.0002275344
0.054452591	0.091307066	0.0022740099	0.00022753583
0.054649528	0.11291329	0.0028097231	0.0002275344
0.054846462	0.10031348	0.0025010428	0.00022753583
0.055043399	0.11468179	0.0028683471	0.00022753136
0.055240333	0.1111813	0.0027835446	0.0002275344
0.055437267	0.11342155	0.0028376349	0.00022753583
0.055634204	0.1232791	0.0030723261	0.00022753136
0.055831138	0.10069665	0.0025240013	0.00022753279
0.056028076	0.11202013	0.0027999526	0.00022753136
0.056225009	0.12768647	0.0031996958	0.00022753136
0.056421943	0.12316529	0.003101036	0.00022753279
0.05661888	0.12319296	0.003078779	0.00022753136
0.056815814	0.11439347	0.0028576213	0.00022753279
0.057012752	0.11835443	0.0029668226	0.00022753136
0.057209685	0.13257575	0.0033201075	0.00022752832
0.057406619	0.13068181	0.0032731381	0.00022753279
0.057603557	0.14655717	0.0036734014	0.00022753136
0.05780049	0.15506329	0.0038900669	0.00022753279
0.057997428	0.15640703	0.0039088996	0.00022752832
0.058194362	0.17045455	0.0042711175	0.00022752832
0.058391295	0.15540114	0.0038952348	0.00022752974
0.058588233	0.18107769	0.0045218286	0.00022752832
0.058785167	0.16455697	0.0041296571	0.00022752974
0.058982104	0.16970459	0.0042443601	0.00022752832
0.059179038	0.18341708	0.0045861197	0.00022752832
0.059375972	0.16173694	0.0040468876	0.00022752974
0.059572909	0.15726817	0.0039262502	0.00022752528
0.059769843	0.17769375	0.0044493782	0.00022752974
0.05996678	0.15613383	0.0038751985	0.00022752528
0.060163714	0.15752994	0.0039431676	0.00022752528
0.060360648	0.17394015	0.0043326127	0.00022752974
0.060557585	0.13400126	0.0033428548	0.00022752528
0.060754519	0.1605476	0.0039948546	0.0002275267
0.060951456	0.13982522	0.0034822593	0.00022752528
0.06114839	0.13005601	0.0032345671	0.00022752528
0.061345324	0.13325031	0.0033152257	0.0002275267
0.061542261	0.10621118	0.0026369998	0.00022752528
0.061739195	0.10323383	0.0025645427	0.0002275267
0.061936133	0.11345319	0.0028140421	0.00022752528
0.062133066	0.095915839	0.0023753322	0.00022752528
0.06233	0.10092308	0.0024941941	0.00022752528
0.062526934	0.089616813	0.0022183596	0.0002275251
0.062723875	0.083746895	0.0020771609	0.00022751919
0.062920809	0.098027125	0.0024245705	0.00022752528
0.063117743	0.091754496	0.0022752704	0.00022751919
0.063314676	0.093635254	0.0023078346	0.00022751919
0.06351161	0.10995724	0.0027067456	0.00022752814
0.063708551	0.10116493	0.0024948106	0.00022751919
0.063905485	0.098887518	0.0024482792	0.00022751919
0.064102419	0.088414632	0.0021740715	0.00022751919
0.064299352	0.086956523	0.0021415786	0.00022752528
0.064496286	0.091519222	0.0022517175	0.00022752205
0.064693227	0.088092342	0.0021615699	0.00022751919
0.064890161	0.095757574	0.0023476896	0.00022751919
0.065087095	0.10262676	0.0025271948	0.00022752528
0.065284029	0.095907144	0.0023611742	0.00022752528
0.065480962	0.088983051	0.0021801461	0.00022752205
0.065677904	0.1022864	0.0024992349	0.00022752528
0.065874837	0.095583789	0.0023413945	0.00022751919
0.066071771	0.072245635	0.0017640635	0.00022751919
0.066268705	0.074969769	0.0018344541	0.00022751919
0.066465639	0.087296806	0.0021327592	0.00022752205
0.06666258	0.091616765	0.0022328293	0.00022751919
0.066859514	0.082980014	0.0020331715	0.00022751919
0.067056447	0.069560051	0.0016874525	0.00022751919
0.067253381	0.069934249	0.0017012157	0.00022751919
0.067450315	0.076509267	0.0018620514	0.00022751596
0.067647256	0.090419158	0.0022031898	0.00022751919
0.06784419	0.096522778	0.0023539797	0.00022751919
0.068041123	0.079881653	0.0019352161	0.00022751311
0.068238057	0.077652641	0.0018813782	0.00022751311
0.068434991	0.084967323	0.0020628737	0.00022752205
0.068631932	0.099290781	0.0024048684	0.00022751311
0.068828866	0.093301438	0.0022729514	0.00022751311
0.0690258	0.074225597	0.0017860943	0.00022751311
0.069222733	0.076741442	0.0018552491	0.00022751311
0.069419667	0.086288415	0.0020889905	0.00022751596
0.069616608	0.083235636	0.002006982	0.00022751311
0.069813542	0.083382264	0.0020119864	0.00022751311
0.070010476	0.068315662	0.0016500842	0.00022751311
0.07020741	0.080330774	0.0019437004	0.00022751311
0.070404343	0.075678796	0.0018116867	0.00022752205
0.070601285	0.086398132	0.0020787423	0.00022751311
0.070798218	0.074375361	0.0017842411	0.00022751311
0.070995152	0.066862173	0.0016111187	0.00022751311
0.071192086	0.067717455	0.001626864	0.00022751311
0.071389019	0.077100113	0.0018409442	0.00022751596
0.071585961	0.066125289	0.0015849228	0.00022750701
0.071782894	0.071676299	0.0017154492	0.00022751311
0.071979828	0.063842133	0.0015298059	0.00022751311
0.072176762	0.081268013	0.0019434053	0.00022751311
0.072373696	0.083094552	0.0019809804	0.00022751596
0.072570637	0.074202895	0.0017783664	0.00022751311
0.072767571	0.077316657	0.0018347162	0.00022750701
0.072964504	0.065972224	0.0015783163	0.00022750701
0.073161438	0.075525269	0.0017917447	0.00022751311
0.073358372	0.07494279	0.0017848972	0.00022750988
0.073555313	0.074308753	0.0017748993	0.00022750701
0.073752247	0.083097793	0.0019683526	0.00022751311
0.073949181	0.073630139	0.0017512741	0.00022750701
0.074146114	0.056027167	0.0013255166	0.00022751311
0.074343048	0.095265262	0.0022666117	0.00022750988
0.074539989	0.067575239	0.0016028368	0.00022750701
0.074736923	0.089994408	0.0021195323	0.00022750701
0.074933857	0.07171315	0.0017035621	0.00022750701
0.07513079	0.067004502	0.001582231	0.00022750701
0.075327724	0.074887387	0.001769291	0.0002275038
0.075524665	0.077746481	0.0018371377	0.00022750701
0.075721599	0.07739421	0.0018184462	0.00022750093
0.075918533	0.073198199	0.0017290582	0.00022750701
0.076115467	0.083379969	0.0019646455	0.00022750701
0.0763124	0.063651592	0.0014972726	0.00022750988
0.076509342	0.078976639	0.0018543451	0.00022750701
0.076706275	0.074958354	0.0017595483	0.00022750701
0.076903209	0.061659195	0.0014526102	0.00022750701
0.077100143	0.06666667	0.001557825	0.00022750093
0.077297077	0.06984479	0.0016369941	0.0002275038
0.077494018	0.056173526	0.0013171142	0.00022750093
0.077690952	0.062122043	0.0014493563	0.00022750093
0.077887885	0.072423398	0.0017020797	0.00022750093
0.078084819	0.063180827	0.0014667824	0.00022750093
0.078281753	0.074298292	0.0017356817	0.0002275038
0.078478694	0.062190425	0.0014515206	0.00022750093
0.078675628	0.06280721	0.001460906	0.00022750093
0.078872561	0.070562296	0.0016488807	0.00022750093
0.079069495	0.068664849	0.0015956799	0.00022750093
0.079266429	0.056737587	0.0013184592	0.0002275038
0.07946337	0.076335877	0.0017750522	0.00022750093
0.079660304	0.054083288	0.0012503932	0.00022750093
0.079857238	0.06444566	0.0014982511	0.00022750093
0.080054171	0.072471604	0.0016785029	0.00022750093
0.080251105	0.063215256	0.001468864	0.0002275038
0.080448046	0.062533692	0.0014453856	0.00022749485
0.08064498	0.056209851	0.0012934934	0.00022750093
0.080841914	0.050406504	0.0011662757	0.00022750093
0.081038848	0.061158799	0.001409181	0.00022749485
0.081235781	0.063311689	0.0014652307	0.00022749772
0.081432723	0.054962646	0.0012621203	0.00022749485
0.081629656	0.053866666	0.0012368048	0.00022749485
0.08182659	0.061060525	0.0014062228	0.00022749485
0.082023524	0.060138371	0.0013802618	0.00022749485
0.082220457	0.064136826	0.0014754104	0.00022749772
0.082417399	0.0704	0.0016190495	0.00022749485
0.082614332	0.061734967	0.0014175641	0.00022749485
0.082811266	0.068507701	0.0015716102	0.00022749485
0.0830082	0.065789476	0.0015024958	0.00022749485
0.083205134	0.061310783	0.001402766	0.00022749163
0.083402075	0.074484944	0.0017052034	0.00022749485
0.083599009	0.063331559	0.0014543247	0.00022749485
0.083795942	0.067681007	0.0015432439	0.00022748877
0.083992876	0.072812989	0.0016597193	0.00022749485
0.08418981	0.061780106	0.0014071675	0.00022749772
0.084386751	0.06122449	0.0013934651	0.00022748877
0.084583685	0.066387869	0.0015116989	0.00022749485
0.084780619	0.069755338	0.0015850101	0.00022749485
0.084977552	0.05532359	0.0012563288	0.00022748877
0.085174486	0.062564634	0.0014159622	0.00022749163
0.085371427	0.060842432	0.0013806437	0.00022748877
0.085568361	0.058672156	0.0013250298	0.00022748877
0.085765295	0.058641974	0.001323287	0.00022748877
0.085962228	0.054744527	0.0012436922	0.00022748877
0.086159162	0.073635429	0.0016643726	0.00022748555
0.086356103	0.068807341	0.0015470103	0.00022748877
0.086553037	0.063141681	0.0014240098	0.00022748877
0.086749971	0.064499743	0.0014468429	0.00022748877
0.086946905	0.079732507	0.0018019332	0.00022748268
0.087143838	0.064875826	0.0014539583	0.00022749163
0.08734078	0.060683325	0.0013640501	0.00022748877
0.087537713	0.050658561	0.001134309	0.00022748268
0.087734647	0.061203845	0.0013704832	0.00022748877
0.087931581	0.068089433	0.0015281314	0.00022748877
0.088128515	0.05725766	0.0012766009	0.00022748555
0.088325456	0.052366566	0.0011689388	0.00022748268
0.08852239	0.061772153	0.001383686	0.00022748268
0.088719323	0.060409386	0.0013434179	0.00022748268
0.088916257	0.074148297	0.0016530193	0.00022748268
0.089113191	0.066933066	0.0014896134	0.00022748555
0.089310132	0.057442557	0.0012776603	0.00022748268
0.089507066	0.064243026	0.0014275762	0.00022748268
0.089703999	0.062003966	0.0013745902	0.00022748268
0.089900933	0.059500001	0.0013242458	0.00022748268
0.090097867	0.061977372	0.00136839	0.00022747947
0.090294808	0.062811568	0.001396292	0.00022748268
0.090491742	0.061667491	0.0013635023	0.00022748268
0.090688676	0.060306475	0.0013340909	0.00022748268
0.090885609	0.063672259	0.0014087611	0.0002274766
0.091082543	0.077301823	0.0017095302	0.00022748268
0.091279477	0.060501721	0.001335985	0.00022748555
0.091476418	0.059517954	0.0013136055	0.0002274766
0.091673352	0.054199219	0.0011916497	0.00022748268
0.091870286	0.045164458	0.00099489023	0.0002274766
0.092067219	0.052889325	0.0011642611	0.0002274766
0.092264153	0.054040898	0.0011860419	0.00022747947
0.092461094	0.043414634	0.00095309032	0.0002274766
0.092658028	0.050366748	0.0011078868	0.0002274766
0.092854962	0.056603774	0.0012387963	0.0002274766
0.093051895	0.048815854	0.0010669681	0.0002274766
0.093248829	0.055852357	0.0012243107	0.00022747337
0.09344577	0.057032384	0.0012478199	0.0002274766
0.093642704	0.053449951	0.0011721536	0.00022747052
0.093839638	0.057859208	0.0012640626	0.0002274766
0.094036572	0.046176046	0.0010065687	0.0002274766
0.094233505	0.05973025	0.0013050948	0.00022747947
0.094430447	0.05651341	0.001231181	0.00022747052
0.09462738	0.051690821	0.0011300847	0.00022747052
0.094824314	0.056910571	0.0012386449	0.00022747052
0.095021248	0.054092869	0.0011776091	0.00022747052
0.095218182	0.066158973	0.0014376043	0.00022747337
0.095415123	0.065934069	0.0014353272	0.00022747052
0.095612057	0.074321106	0.0016165804	0.00022747052
0.09580899	0.061816454	0.0013415052	0.00022747052
0.096005924	0.066985644	0.0014595208	0.00022747052
0.096202858	0.062588908	0.0013572486	0.00022747337
0.096399799	0.06004728	0.0012998653	0.00022747052
0.096596733	0.069143929	0.0014939959	0.00022746444
0.096793666	0.053402647	0.0011552296	0.00022747052
0.0969906	0.060491495	0.0013094697	0.00022746444
0.097187534	0.066446751	0.0014359895	0.00022747337
0.097384475	0.065658949	0.0014208896	0.00022746444
0.097581409	0.068139099	0.0014712173	0.00022747052
0.097778343	0.056305259	0.001209095	0.00022746444
0.097975276	0.056941178	0.0012298938	0.00022746444
0.09817221	0.069496267	0.0014953803	0.00022746729
0.098369151	0.053748231	0.0011613936	0.00022746444
0.098566085	0.068087079	0.0014598686	0.00022746444
0.098763019	0.059484776	0.0012814797	0.00022746444
0.098959953	0.057354301	0.0012275885	0.00022746444
0.099156886	0.059122402	0.0012654157	0.00022746121
0.099353828	0.071895428	0.001548016	0.00022746444
0.099550761	0.055297397	0.0011865157	0.00022745834
0.099747695	0.043337945	0.00092505629	0.00022745834
0.099944629	0.050878815	0.0010885891	0.00022745834
0.10014156	0.052413791	0.0011182309	0.00022746121
0.1003385	0.059529305	0.001272966	0.00022745834
0.10053544	0.055963304	0.0011934683	0.00022746444
0.10073237	0.047862455	0.001025597	0.00022745834
0.1009293	0.064161323	0.0013677576	0.00022746444
0.10112624	0.066363633	0.0014086778	0.00022746121
0.10132318	0.059742648	0.0012750907	0.00022746444
0.10152011	0.053157657	0.0011271402	0.00022745834
0.10171705	0.049839962	0.0010605467	0.00022745834
0.10191398	0.054694623	0.00116218	0.00022745834
0.10211091	0.042485151	0.0009026312	0.00022746121
0.10230786	0.052751251	0.0011193875	0.00022745834
0.10250479	0.056962024	0.0012055966	0.00022745226
0.10270172	0.066216215	0.0013999087	0.00022745226
0.10289866	0.072437361	0.0015408112	0.00022745226
0.10309559	0.097472921	0.0020651242	0.00022745512
0.10329253	0.090661831	0.001924681	0.00022745226
0.10348947	0.096412554	0.0020365112	0.00022745834
0.1036864	0.10135135	0.0021454399	0.00022745226
0.10388333	0.07985644	0.0016860362	0.00022745226
0.10408027	0.093117408	0.0019696692	0.00022746121
0.10427721	0.091928251	0.001941488	0.00022745226
0.10447414	0.085240021	0.0018001558	0.00022745226
0.10467108	0.081105173	0.0017068684	0.00022745226
0.10486801	0.089852482	0.0018942658	0.00022745226
0.10506494	0.079379156	0.0016666168	0.00022745512
0.10526188	0.085077949	0.0017901536	0.00022745226
0.10545882	0.094001792	0.0019832074	0.00022744617
0.10565575	0.085068673	0.0017852766	0.00022745226
0.10585269	0.085257553	0.0017913241	0.00022745226
0.10604962	0.072438166	0.0015175771	0.00022745512
0.10624656	0.083185844	0.0017444609	0.00022744617
0.10644349	0.07899382	0.0016542342	0.00022744617
0.10664043	0.084984586	0.0017780387	0.00022745226
0.10683736	0.090225562	0.0018920624	0.00022744617
0.1070343	0.078345068	0.0016383395	0.00022744904
0.10723124	0.078268476	0.00163155	0.00022744617
0.10742817	0.079735681	0.0016685236	0.00022744617
0.1076251	0.082863338	0.0017210352	0.00022744617
0.10782204	0.081318684	0.0017000629	0.00022744617
0.10801897	0.063839093	0.0013298719	0.00022744904
0.10821591	0.072647706	0.0015147454	0.00022744617
0.10841285	0.070619009	0.0014694058	0.00022744617
0.10860978	0.071397662	0.0014804625	0.00022744009
0.10880671	0.071553998	0.0014940074	0.00022744009
0.10900365	0.089771256	0.0018601154	0.00022744904
0.10920059	0.070903592	0.0014692725	0.00022744009
0.10939752	0.083297178	0.0017297942	0.00022744009
0.10959446	0.080345571	0.00166512	0.00022744009
0.10979139	0.074717633	0.0015525164	0.00022744009
0.10998832	0.093441918	0.0019297251	0.00022744296
0.11018527	0.085381627	0.0017681492	0.00022744009
0.1103822	0.089616545	0.0018554376	0.00022744009
0.11057913	0.096995711	0.0020046681	0.00022743401
0.11077607	0.10111876	0.0020927778	0.00022744009
0.110973	0.10647359	0.0021925401	0.00022743687
0.11116994	0.11457888	0.0023641235	0.00022743401
0.11136688	0.13190578	0.0027248452	0.00022743401
0.11156381	0.14589536	0.00300433	0.00022743401
0.11176074	0.1388889	0.0028665767	0.00022743401
0.11195768	0.17726888	0.0036460105	0.00022744296
0.11215462	0.19410004	0.0040085106	0.00022743401
0.11235155	0.25212225	0.0051889662	0.00022743401
0.11254849	0.36175603	0.0074274023	0.00022743401
0.11274542	0.56646907	0.011649311	0.00022743401
0.11294235	0.95927024	0.019751426	0.00022743687
0.11313929	1.6885315	0.034725212	0.00022743401
0.11333623	2.8971884	0.059333459	0.00022743401
0.11353316	4.6828752	0.096270606	0.00022742792
0.1137301	7.2369747	0.148313	0.00022743401
0.11392703	10.205021	0.20870575	0.00022743079
0.11412397	13.765645	0.28206474	0.00022742792
0.1143209	16.740227	0.34316579	0.00022742792
0.11451784	18.877773	0.3861796	0.00022742792
0.11471477	20.660091	0.4231796	0.00022742792
0.11491171	21.080778	0.42902103	0.00022743079
0.11510865	20.958263	0.42813346	0.00022742792
0.11530558	19.702747	0.40198779	0.00022742792
0.11550251	18.332079	0.37488577	0.00022742792
0.11569945	16.433485	0.33452708	0.00022742792
0.11589638	14.957799	0.30423638	0.00022743079
0.11609332	13.353452	0.27149162	0.00022742792
0.11629026	11.975165	0.24361852	0.00022742792
0.11648719	10.439851	0.21225007	0.00022742184
0.11668412	9.4768782	0.19254948	0.00022742184
0.11688106	8.456089	0.17209119	0.00022742471
0.117078	7.8371711	0.15890266	0.00022742184
0.11727493	7.2259517	0.14617993	0.00022742184
0.11747187	6.8710604	0.13900158	0.00022742184
0.1176688	6.3382535	0.12832884	0.00022742184
0.11786573	6.078383	0.12344791	0.00022742471
0.11806267	5.7942019	0.11707363	0.00022742184
0.11825961	5.6485047	0.11431623	0.00022742184
0.11845654	5.4744525	0.11023031	0.00022742184
0.11865348	5.2104192	0.10510419	0.00022742184
0.11885041	4.9164276	0.099496722	0.00022741863
0.11904735	4.6615386	0.093780383	0.00022741576
0.11924428	4.2453213	0.085611902	0.00022741576
0.11944122	3.9368932	0.079164408	0.00022741576
0.11963815	3.5523965	0.07157404	0.00022741576
0.11983509	3.1735637	0.063592114	0.00022741863
0.12003203	2.6950727	0.054142971	0.00022741576
0.12022896	2.2190166	0.044713225	0.00022741576
0.12042589	1.8728745	0.037668753	0.00022741576
0.12062283	1.4577154	0.029170536	0.00022741576
0.12081976	1.1083033	0.022185914	0.00022741863
0.1210167	0.84039998	0.016799124	0.00022741576
0.12121364	0.63933766	0.012841153	0.00022740968
0.12141057	0.51536924	0.010290386	0.00022740968
0.1216075	0.37625352	0.0075296913	0.00022741576
0.12180444	0.3121019	0.0062219943	0.00022741254
0.12200138	0.27819848	0.0055490537	0.00022740968
0.12219831	0.22523962	0.0044963136	0.00022741576
0.12239525	0.19326733	0.0038416071	0.00022741576
0.12259218	0.18577707	0.0037085125	0.00022740968
0.12278911	0.16673298	0.0033217077	0.00022741254
0.12298606	0.16401906	0.0032641341	0.00022740968
0.12318299	0.15399842	0.0030598489	0.00022740968
0.12337992	0.1282856	0.002536589	0.00022740968
0.12357686	0.14161047	0.0028159083	0.00022740968
0.12377379	0.12485184	0.0024773111	0.00022740646
0.12397073	0.12870115	0.0025529601	0.00022740968
0.12416767	0.12961508	0.0025643692	0.00022740359
0.1243646	0.10815047	0.0021363255	0.00022740359
0.12456153	0.1123817	0.0022271534	0.00022740359
0.12475847	0.11677116	0.0023068518	0.00022740646
0.12495541	0.10153483	0.0020098859	0.00022739463
0.12515233	0.098123536	0.0019353388	0.00022740323
0.12534928	0.1012067	0.0019924815	0.00022739751
0.12554622	0.098944075	0.0019526299	0.00022739751
0.12574315	0.10221531	0.0020107485	0.00022739751
0.12594008	0.094958968	0.001872893	0.00022739751
0.12613702	0.084337346	0.0016582489	0.00022740968
0.12633395	0.091617934	0.0018045721	0.00022740968
0.12653089	0.078621224	0.0015430974	0.00022739751
0.12672782	0.093508504	0.001833897	0.00022739751
0.12692475	0.081775703	0.0016095944	0.00022739751
0.12712169	0.072741196	0.0014191801	0.00022740323
0.12731864	0.094090201	0.0018509749	0.00022739751
0.12751557	0.089649864	0.0017543298	0.00022739751
0.1277125	0.088846155	0.0017384517	0.00022739751
0.12790944	0.088064887	0.0017264257	0.00022739751
0.12810637	0.08458285	0.0016544479	0.00022739751
0.1283033	0.07665772	0.00149679	0.00022739751
0.12850024	0.070525102	0.001376453	0.00022739751
0.12869717	0.082982793	0.0016185582	0.00022738535
0.12889411	0.071456015	0.0013964492	0.00022739751
0.12909104	0.077215672	0.0015018976	0.00022740323
0.12928799	0.072085887	0.0014074205	0.00022739751
0.12948492	0.073133759	0.0014192512	0.00022739751
0.12968186	0.086358428	0.0016838727	0.00022738535
0.12987879	0.073876619	0.0014375881	0.00022738535
0.13007572	0.073779799	0.0014309136	0.00022738535
0.13027266	0.06582953	0.0012801377	0.00022738535
0.13046959	0.088813305	0.0017222421	0.00022738535
0.13066652	0.077360637	0.0015024202	0.00022738535
0.13086346	0.066540644	0.0012898392	0.00022739751
0.13106039	0.072018005	0.0013908517	0.00022740323
0.13125734	0.067680605	0.0013153942	0.00022738535
0.13145427	0.074380167	0.0014369617	0.00022738535
0.13165121	0.070056498	0.00135562	0.00022738535
0.13184814	0.063319594	0.0012216803	0.00022738535
0.13204508	0.058889721	0.0011364621	0.00022738535
0.13224201	0.066087611	0.0012801781	0.00022738535
0.13243894	0.062032886	0.0011951596	0.00022738535
0.13263588	0.063710876	0.00122576	0.00022738535
0.13283281	0.0710546	0.001370103	0.00022738535
0.13302974	0.061377246	0.0011834428	0.00022739106
0.13322669	0.063432835	0.0012212503	0.00022738535
0.13342363	0.064121574	0.0012306775	0.00022738535
0.13362056	0.058670629	0.0011269819	0.00022738535
0.13381749	0.068207234	0.0013127723	0.00022737318
0.13401443	0.067336306	0.00129463	0.00022737318
0.13421136	0.06827458	0.0013114384	0.00022738535
0.1344083	0.063006632	0.0012054069	0.00022737318
0.13460523	0.055801921	0.0010688375	0.00022737318
0.13480216	0.048698884	0.0009352045	0.00022737318
0.1349991	0.060370371	0.0011579469	0.0002273789
0.13519605	0.063115649	0.0012014643	0.00022737318
0.13539298	0.059977785	0.0011503077	0.00022737318
0.13558991	0.054578755	0.0010407413	0.00022737318
0.13578685	0.05071665	0.00096814852	0.00022737318
0.13598378	0.044306114	0.00084341486	0.00022737318
0.13618071	0.048969071	0.0009360502	0.00022737318
0.13637765	0.058586597	0.0011173824	0.00022737318
0.13657458	0.055535257	0.0010578546	0.00022737318
0.13677152	0.056851313	0.0010816068	0.00022737318
0.13696845	0.054142442	0.0010283784	0.00022737318
0.13716538	0.056955092	0.0010844804	0.0002273789
0.13736233	0.059641421	0.0011371213	0.00022737318
0.13755926	0.067557804	0.0012803589	0.00022737318
0.1377562	0.063000731	0.0011985467	0.00022737318
0.13795313	0.059869375	0.0011367036	0.00022736102
0.13815007	0.057782594	0.0010942421	0.00022736102
0.138347	0.052211747	0.000990386	0.00022737318
0.13854393	0.052877698	0.0009992728	0.00022737318
0.13874087	0.059636362	0.0011335304	0.00022736102
0.1389378	0.060288809	0.0011416989	0.00022736102
0.13913473	0.063776426	0.0012035259	0.00022736673
0.13933168	0.052480228	0.00099132967	0.00022737318
0.13952862	0.054937165	0.0010373393	0.00022737318
0.13972555	0.054142442	0.0010284251	0.00022736102
0.13992248	0.051318604	0.00096498558	0.00022736102
0.14011942	0.048045896	0.00090607448	0.00022736102
0.14031635	0.048998568	0.00092273101	0.00022737318
0.14051329	0.045665357	0.00085878081	0.00022736102
0.14071022	0.05812702	0.0010974287	0.00022736102
0.14090715	0.059886605	0.001123714	0.00022736102
0.14110409	0.058193501	0.0010958352	0.00022736673
0.14130104	0.058613297	0.0011044422	0.00022736102
0.14149797	0.060595322	0.0011370633	0.00022736102
0.1416949	0.063142955	0.0011855618	0.00022734885
0.14189184	0.051943462	0.00097276847	0.00022736102
0.14208877	0.050357144	0.00094787247	0.00022736102
0.1422857	0.057780929	0.0010844064	0.00022736102
0.14248264	0.055458054	0.0010353525	0.00022736102
0.14267957	0.060283687	0.0011317098	0.00022736102
0.14287651	0.04920914	0.00091906398	0.00022736102
0.14307344	0.064048126	0.0012011045	0.00022735457
0.14327039	0.049191847	0.00091848505	0.00022736102
0.14346732	0.055946518	0.0010459521	0.00022734885
0.14366426	0.051597051	0.00096314226	0.00022734885
0.14386119	0.055107053	0.001028982	0.00022736102
0.14405812	0.049036779	0.00091447396	0.00022734885
0.14425506	0.04883153	0.0009085511	0.00022734885
0.14445199	0.053314626	0.00099512364	0.00022734885
0.14464892	0.045630045	0.00085132779	0.00022734885
0.14484586	0.05422315	0.0010074701	0.00022734885
0.14504279	0.047419805	0.00088163384	0.00022735457
0.14523974	0.05114029	0.00094723346	0.00022734885
0.14543667	0.05787443	0.0010795983	0.00022733668
0.14563361	0.053453662	0.00099167263	0.00022734885
0.14583054	0.053527981	0.00099399535	0.00022734885
0.14602748	0.05430647	0.0010061441	0.00022734885
0.14622441	0.054344065	0.001007601	0.00022733668
0.14642134	0.049067035	0.00090867252	0.00022734885
0.14661828	0.045454547	0.00084023742	0.00022733668
0.14681521	0.048180241	0.00089332392	0.00022733668
0.14701214	0.052086927	0.00096380082	0.0002273424
0.14720909	0.047881503	0.00088535069	0.00022733668
0.14740603	0.044467427	0.00082223368	0.00022733668
0.14760296	0.05108992	0.00093951495	0.00022733668
0.14779989	0.047192559	0.00087227632	0.00022733668
0.14799683	0.049948331	0.00092341931	0.00022733668
0.14819376	0.05528846	0.001021076	0.00022733668
0.1483907	0.051352277	0.00094671961	0.00022733668
0.14858763	0.046289992	0.00085063506	0.00022733668
0.14878456	0.057368603	0.0010597517	0.00022733668
0.1489815	0.055593219	0.0010199525	0.0002273424
0.14917845	0.05008518	0.00092090206	0.00022733668
0.14937538	0.051841747	0.00095400162	0.00022733668
0.14957231	0.046054859	0.0008441612	0.00022733668
0.14976925	0.045205478	0.0008330507	0.00022733668
0.14996618	0.046174586	0.00084442954	0.00022733668
0.15016311	0.046779662	0.00085780304	0.00022732452
0.15036005	0.046242774	0.00084919477	0.00022732452
0.15055698	0.044474393	0.00081292156	0.00022733668
0.15075392	0.054044869	0.00099287543	0.00022733668
0.15095085	0.056356926	0.0010282742	0.00022733024
0.1511478	0.051532503	0.00094208255	0.00022732452
0.15134473	0.044301659	0.00081109558	0.00022733668
0.15154167	0.050989602	0.00093069562	0.00022732452
0.1517386	0.046315078	0.00084792211	0.00022732452
0.15193553	0.048559945	0.00088552182	0.00022732452
0.15213247	0.045378152	0.00082860136	0.00022733668
0.1523294	0.049949717	0.00091133697	0.00022732452
0.15252633	0.056647785	0.0010307292	0.00022732452
0.15272327	0.052860487	0.00096373376	0.00022732452
0.1529202	0.045712378	0.00083178078	0.00022733024
0.15311715	0.050301813	0.00091793953	0.00022732452
0.15331408	0.046527084	0.00084495131	0.00022732452
0.15351102	0.053523935	0.00097254361	0.00022732452
0.15370795	0.04825291	0.00087700959	0.00022731235
0.15390489	0.050249584	0.00091349339	0.00022732452
0.15410182	0.045319218	0.00082098361	0.00022732452
0.15429875	0.051495016	0.00093529455	0.00022732452
0.15449569	0.052124836	0.00094635348	0.00022731235
0.15469262	0.054268695	0.00098408398	0.00022731235
0.15488955	0.044137023	0.00079776993	0.00022731809
0.1550865	0.04677207	0.00084570854	0.00022732452
0.15528344	0.052352551	0.00094964501	0.00022731235
0.15548037	0.046041735	0.00083476771	0.00022731235
0.1556773	0.05180328	0.00093481282	0.00022731235
0.15587424	0.051729817	0.00093569164	0.00022731235
0.15607117	0.049608354	0.00089289807	0.00022731235
0.1562681	0.048466865	0.00087679009	0.00022731235
0.15646504	0.044021025	0.00079480524	0.00022732452
0.15666197	0.050686724	0.00091335748	0.00022731235
0.15685891	0.044458974	0.0008004866	0.00022731809
0.15705585	0.051549755	0.00092792069	0.00022731235
0.15725279	0.048461035	0.00087344879	0.00022731235
0.15744972	0.049089726	0.00088173361	0.00022731235
0.15764666	0.052083332	0.00093624595	0.00022731235
0.15784359	0.042295083	0.00076248584	0.00022731235
0.15804052	0.0460441	0.00082587416	0.00022731235
0.15823746	0.046269145	0.00083185377	0.00022731235
0.15843439	0.051191244	0.00091531378	0.00022731235
0.15863132	0.047341116	0.00084908539	0.00022730019
0.15882826	0.052117262	0.00093716109	0.00022731809
0.15902521	0.051712994	0.00092613098	0.00022730019
0.15922214	0.046971168	0.00084189116	0.00022730019
0.15941907	0.046183452	0.00082381634	0.00022731235
0.15961601	0.049854323	0.00089347118	0.00022730019
0.15981294	0.052157115	0.0009324773	0.00022730019
0.16000988	0.039600771	0.00070707529	0.00022730019
0.16020681	0.039291464	0.00070134463	0.00022730019
0.16040374	0.04135941	0.00073674001	0.00022730019
0.16060068	0.048678271	0.00087078556	0.00022730019
0.16079761	0.042743221	0.0007600633	0.00022730592
0.16099456	0.047846891	0.00085125578	0.00022730019
0.16119149	0.04312842	0.00077010214	0.00022730019
0.16138843	0.048608892	0.00086600985	0.00022730019
0.16158536	0.04966357	0.00088546774	0.00022730019
0.16178229	0.039720368	0.00070473395	0.00022728802
0.16197923	0.043075942	0.00076570798	0.00022728802
0.16217616	0.046408139	0.00082387275	0.00022728802
0.1623731	0.041069724	0.00072954356	0.00022728802
0.16257003	0.053316407	0.00094638619	0.00022728802
0.16276696	0.049872935	0.00088532566	0.00022730592
0.16296391	0.054320205	0.00096454105	0.00022728802
0.16316085	0.051882315	0.00091930031	0.00022730019
0.16335778	0.047136981	0.00083487656	0.00022728802
0.16355471	0.047904193	0.00084709626	0.00022728802
0.16375165	0.052291799	0.00093594816	0.00022728802
0.16394858	0.044473514	0.0008007483	0.00022728802
0.16414551	0.043095004	0.00077516824	0.00022728802
0.16434245	0.042630535	0.00077166955	0.00022728802
0.16453938	0.051529255	0.0009359527	0.00022728802
0.16473632	0.046441697	0.00084522861	0.00022729376
0.16493326	0.048854448	0.00089286233	0.00022728802
0.1651302	0.056356926	0.001028678	0.00022727586
0.16532713	0.049931601	0.00091990473	0.00022728802
0.16552407	0.041299932	0.00075627037	0.00022727586
0.165721	0.042372882	0.00077660114	0.00022728802
0.16591793	0.043597665	0.00080407743	0.00022727586
0.16611487	0.03873843	0.00071380194	0.00022727586
0.1663118	0.045833334	0.00085027103	0.00022728802
0.16650873	0.047782741	0.00088196778	0.00022728802
0.16670567	0.039614193	0.00073160068	0.00022728159
0.16690262	0.046196595	0.00085743848	0.00022727586
0.16709955	0.039359108	0.00073102757	0.00022727586
0.16729648	0.048455056	0.00090377469	0.00022727586
0.16749342	0.052924789	0.00098371285	0.00022727586
0.16769035	0.049317945	0.00091821369	0.00022727586
0.16788729	0.046963278	0.00087877427	0.00022727586
0.16808422	0.037899859	0.00070316769	0.00022727586
0.16828115	0.042862203	0.0008026844	0.00022727586
0.16847809	0.043905865	0.00081881182	0.00022726369
0.16867502	0.045128942	0.0008500776	0.00022728159
0.16887197	0.041858815	0.00078415405	0.00022727586
0.1690689	0.03990113	0.00074600481	0.00022726369
0.16926584	0.043354657	0.00081357703	0.00022727586
0.16946277	0.047720797	0.00089659041	0.00022727586
0.1696597	0.044228695	0.00083492685	0.00022726369
0.16985664	0.044887781	0.00084370089	0.00022726369
0.17005357	0.043229725	0.00081331213	0.00022727586
0.17025051	0.038088392	0.00071819674	0.00022726369
0.17044744	0.038723558	0.00072940777	0.00022726369
0.17064437	0.037477478	0.00070774317	0.00022726943
0.17084132	0.056155507	0.0010611493	0.00022727586
0.17103826	0.045537341	0.00086532475	0.00022726369
0.17123519	0.044154905	0.00083581207	0.00022726369
0.17143212	0.041771695	0.00078874012	0.00022726369
0.17162906	0.041983351	0.0007944447	0.00022726369
0.17182599	0.044388309	0.00083950721	0.00022726369
0.17202292	0.044918999	0.00085801125	0.00022726369
0.17221986	0.047186933	0.00089489925	0.00022726369
0.17241679	0.049945317	0.00094945327	0.00022726369
0.17261373	0.056872036	0.0010813919	0.00022725726
0.17281067	0.044776119	0.00085013715	0.00022726369
0.17300761	0.04768892	0.00090932782	0.00022726369
0.17320454	0.045189504	0.00085855357	0.00022725153
0.17340147	0.046528805	0.00089011056	0.00022725153
0.17359841	0.049391817	0.00094420562	0.00022725153
0.17379534	0.050312154	0.00096024375	0.00022726369
0.17399228	0.050238356	0.00095761649	0.00022726369
0.17418921	0.046920821	0.00089460815	0.00022725153
0.17438614	0.042426497	0.00081432884	0.00022725153
0.17458308	0.040929202	0.00078189309	0.00022725726
0.17478003	0.045908924	0.00087948615	0.00022725153
0.17497696	0.047689464	0.00091265788	0.00022725153
0.17517389	0.045922115	0.00087586383	0.00022725153
0.17537083	0.034469839	0.00066306751	0.00022723936
0.17556776	0.044682421	0.00085447892	0.00022723936
0.17576469	0.043964233	0.00084442931	0.00022723936
0.17596163	0.031390134	0.00060303666	0.00022725153
0.17615856	0.03265306	0.00062478741	0.00022725153
0.1763555	0.039077036	0.00074998382	0.00022725153
0.17655243	0.038604304	0.00074004359	0.00022724509
0.17674938	0.040571	0.0007824339	0.00022723936
0.17694631	0.047993999	0.00092525128	0.00022723936
0.17714325	0.049756829	0.00095818419	0.00022725153
0.17734018	0.049192641	0.00094924204	0.00022723936
0.17753711	0.043882485	0.00084195263	0.00022723936
0.17773405	0.041697972	0.0008040283	0.00022723936
0.17793098	0.042641509	0.00082378072	0.00022723936
0.17812791	0.045403376	0.00087536609	0.00022723936
0.17832485	0.044753667	0.00086379197	0.00022723936
0.17852178	0.036883704	0.00071127241	0.00022724509
0.17871873	0.045300115	0.00087602972	0.00022723936
0.17891566	0.050790068	0.0009810254	0.00022723936
0.1791126	0.04835663	0.00093570113	0.00022722721
0.17930953	0.049452625	0.00095672184	0.00022723936
0.17950647	0.04359363	0.00084451388	0.00022723936
0.1797034	0.046880908	0.00090726995	0.00022723936
0.17990033	0.046397585	0.00089691696	0.00022723936
0.18009727	0.050570343	0.000981502	0.00022722721
0.1802942	0.050359711	0.00097509724	0.00022722721
0.18049113	0.044776119	0.00087165303	0.00022723294
0.18068808	0.039029937	0.00075570511	0.00022722721
0.18088502	0.036377415	0.00070410059	0.00022722721
0.18108195	0.048399389	0.00094052649	0.00022722721
0.18127888	0.036107942	0.00069974147	0.00022722721
0.18147582	0.033587787	0.00065223622	0.00022722721
0.18167275	0.039453719	0.00076389068	0.00022722721
0.18186969	0.03908046	0.00076060859	0.00022722721
0.18206662	0.03834356	0.00074652495	0.00022722721
0.18226355	0.045420136	0.00087908213	0.00022721505
0.18246049	0.039125431	0.00076214434	0.00022723294
0.18265744	0.045819014	0.00089093921	0.00022721505
0.18285437	0.049577247	0.00096756511	0.00022722721
0.1830513	0.048864949	0.00095454935	0.00022722721
0.18324824	0.052952383	0.0010292982	0.00022721505
0.18344517	0.044196773	0.00086210307	0.00022721505
0.1836421	0.045628835	0.00088931958	0.00022721505
0.18383904	0.048846155	0.00095381954	0.00022721505
0.18403597	0.041890852	0.00081712642	0.00022721505
0.18423291	0.046941131	0.00091647985	0.00022721505
0.18442984	0.045331266	0.00088798138	0.00022722078
0.18462679	0.044861965	0.00087396766	0.00022721505
0.18482372	0.035480138	0.00069226953	0.00022721505
0.18502066	0.039200615	0.00076404528	0.00022721505
0.18521759	0.047950502	0.00093862298	0.00022721505
0.18541452	0.045313708	0.00088733446	0.00022721505
0.18561146	0.039722331	0.0007758321	0.00022721505
0.18580839	0.040478025	0.00079039106	0.00022721505
0.18600532	0.050329074	0.00098576909	0.00022720288
0.18620226	0.041133102	0.00080609624	0.00022721505
0.18639919	0.038342372	0.00075004518	0.00022722078
0.18659614	0.034883723	0.0006826524	0.00022720288
0.18679307	0.035881434	0.00070463889	0.00022720288
0.18699001	0.040201005	0.0007863607	0.00022720288
0.18718694	0.041618049	0.00081645313	0.00022720288
0.18738388	0.049155146	0.00095897645	0.00022720288
0.18758081	0.046292663	0.00091266754	0.00022721505
0.18777774	0.044306256	0.00086925359	0.00022720288
0.18797468	0.037383176	0.00073358632	0.00022720288
0.18817161	0.042088855	0.00082639873	0.00022719071
0.18836854	0.045278639	0.00088591175	0.00022720861
0.18856549	0.036191974	0.00071346603	0.00022719071
0.18876243	0.047100037	0.00092508638	0.00022720288
0.18895936	0.042105265	0.00082731212	0.00022720288
0.18915629	0.044939429	0.00088426395	0.00022719071
0.18935323	0.048418585	0.00095233967	0.00022719071
0.18955016	0.06198509	0.0012234849	0.00022720288
0.1897471	0.058297709	0.0011448086	0.00022719071
0.18994403	0.055164319	0.0010865883	0.00022720288
0.19014096	0.041354865	0.00081599061	0.00022719071
0.1903379	0.042818218	0.00084046909	0.00022719646
0.19053484	0.050413549	0.00099610304	0.00022719071
0.19073178	0.04127726	0.00080982782	0.00022719071
0.19092871	0.044453185	0.00087711832	0.00022719071
0.19112565	0.04980237	0.00098544266	0.00022719071
0.19132258	0.045596261	0.00089591218	0.00022719071
0.19151951	0.048050415	0.00094948366	0.00022719071
0.19171645	0.046347212	0.0009141487	0.00022719071
0.19191338	0.038204018	0.00075385231	0.00022717856
0.19211031	0.038431372	0.00075707119	0.00022719071
0.19230725	0.041224971	0.00081237231	0.00022719646
0.1925042	0.043668121	0.00086569239	0.00022719071
0.19270113	0.028717546	0.0005656752	0.00022719071
0.19289806	0.035447028	0.00069916906	0.00022719071
0.193095	0.036036037	0.0007088593	0.00022717856
0.19329193	0.042874157	0.00084949069	0.00022719071
0.19348887	0.051424049	0.0010177528	0.00022717856
0.1936858	0.045222178	0.0008913278	0.00022717856
0.19388273	0.038674034	0.00076336833	0.00022717856
0.19407967	0.047072783	0.00093060866	0.00022717856
0.1942766	0.052212037	0.001036878	0.0002271843
0.19447355	0.046557121	0.00091601117	0.00022717856
0.19467048	0.044787951	0.00088711653	0.00022717856
0.19486742	0.044699367	0.00088434556	0.0002271664
0.19506435	0.048073102	0.00095337926	0.0002271664
0.19526128	0.035500597	0.00070453563	0.0002271664
0.19545822	0.04543674	0.00089446892	0.0002271664
0.19565515	0.040849019	0.00081258954	0.0002271664
0.19585209	0.03888889	0.00077014539	0.0002271664
0.19604902	0.040775929	0.00080713816	0.0002271664
0.19624595	0.044223107	0.00087838451	0.00022717213
0.1964429	0.036643025	0.00072272879	0.00022717856
0.19663984	0.03125	0.00062098127	0.0002271664
0.19683677	0.033978663	0.00067058182	0.0002271664
0.1970337	0.042731628	0.00084951986	0.0002271664
0.19723064	0.038537942	0.00076367671	0.0002271664
0.19742757	0.042096902	0.00083437195	0.0002271664
0.1976245	0.041348856	0.00082405412	0.00022715423
0.19782144	0.041567694	0.00082244969	0.0002271664
0.19801837	0.046325877	0.00092147838	0.0002271664
0.19821531	0.044276029	0.000880034	0.00022715998
0.19841225	0.036624204	0.00072646065	0.0002271664
0.19860919	0.041633308	0.0008286864	0.00022715423
0.19880612	0.045580659	0.00090298394	0.00022715423
0.19900306	0.046642542	0.00093031506	0.00022715423
0.19919999	0.053051457	0.0010551651	0.00022715423
0.19939692	0.040239044	0.00079871604	0.00022715423
0.19959386	0.040725805	0.0008132545	0.0002271664
0.19979079	0.039012738	0.00077358313	0.00022715423
0.19998772	0.035671342	0.00070953445	0.00022715423
0.20018466	0.035885166	0.0007119957	0.00022715998
0.20038161	0.039806996	0.00079359888	0.00022715423
0.20057854	0.043617446	0.00086765195	0.00022715423
0.20077547	0.04714343	0.00093801355	0.00022715423
0.20097241	0.049134113	0.00098165637	0.00022715423
0.20116934	0.045527156	0.00090557517	0.00022715423
0.20136628	0.045875251	0.00091583992	0.00022714208
0.20156321	0.046437148	0.00092452322	0.00022715423
0.20176014	0.040709391	0.00081276277	0.00022714208
0.20195708	0.041633308	0.00082860887	0.00022715423
0.20215401	0.038507823	0.00076652161	0.00022715998
0.20235096	0.035441	0.0007063151	0.00022714208
0.20254789	0.041616648	0.00082803413	0.00022714208
0.20274483	0.040162273	0.00080474635	0.00022714208
0.20294176	0.034013607	0.00067586574	0.00022714208
0.20313869	0.03597413	0.00071877282	0.00022714208
0.20333563	0.033939395	0.00067778502	0.00022714208
0.20353256	0.041816011	0.00082967902	0.00022712992
0.2037295	0.043866776	0.00087947072	0.00022712992
0.20392643	0.033239886	0.00066082407	0.00022714208
0.20412336	0.040584415	0.00081308768	0.00022714782
0.20432031	0.043933898	0.00087748608	0.00022714208
0.20451725	0.043303929	0.0008624469	0.00022714208
0.20471418	0.040617384	0.00081424351	0.00022712992
0.20491111	0.049180329	0.0009788163	0.00022714208
0.20510805	0.045916293	0.00092078216	0.00022712992
0.20530498	0.040387724	0.00080710143	0.00022712992
0.20550191	0.041348856	0.00082373992	0.00022712992
0.20569885	0.04612245	0.00092691771	0.00022712992
0.20589578	0.05172414	0.0010307855	0.00022712992
0.20609272	0.054582484	0.0010967903	0.00022713565
0.20628966	0.04917372	0.00098257721	0.00022712992
0.2064866	0.043407708	0.00086930231	0.00022711777
0.20668353	0.057317074	0.0011511106	0.00022712992
0.20688047	0.043916196	0.00087732868	0.00022712992
0.2070774	0.03484603	0.00069699826	0.00022711777
0.20727433	0.044703986	0.00089238642	0.00022711777
0.20747127	0.046843179	0.00094054913	0.00022711777
0.2076682	0.036555644	0.00073149608	0.00022712992
0.20786513	0.034761518	0.0006944639	0.00022712992
0.20806207	0.044381108	0.00089076842	0.0002271235
0.20825902	0.034315705	0.00068517949	0.00022711777
0.20845595	0.036674816	0.00073562883	0.00022711777
0.20865288	0.040808082	0.00081612478	0.00022711777
0.20884982	0.035524704	0.00071338494	0.00022711777
0.20904675	0.041090317	0.00082395354	0.00022711777
0.20924369	0.040567953	0.00081242848	0.0002271056
0.20944062	0.036452007	0.00072902552	0.00022711777
0.20963755	0.049858127	0.00099912356	0.00022711777
0.20983449	0.039884869	0.00080423953	0.00022711777
0.21003142	0.042613637	0.00085423875	0.00022711133
0.21022837	0.035016287	0.00070192112	0.00022711777
0.2104253	0.036674816	0.00073581282	0.00022711777
0.21062224	0.045143086	0.00090156763	0.0002271056
0.21081917	0.047383603	0.00095731346	0.0002271056
0.2110161	0.03603239	0.00072015106	0.0002271056
0.21121304	0.03257329	0.00065266714	0.0002271056
0.21140997	0.038728088	0.00077745627	0.0002271056
0.2116069	0.038398694	0.00077157601	0.0002271056
0.21180384	0.036021285	0.00072458806	0.0002271056
0.21200077	0.033535354	0.00066955725	0.00022711133
0.21219772	0.033744857	0.00067998952	0.00022709343
0.21239465	0.037387017	0.00075240812	0.0002271056
0.21259159	0.04102356	0.00082137494	0.0002271056
0.21278852	0.044081632	0.00088555698	0.0002271056
0.21298546	0.037743505	0.00075535744	0.00022709343
0.21318239	0.031765677	0.00064057717	0.00022709343
0.21337932	0.03125	0.00062514708	0.00022709343
0.21357626	0.036779732	0.00073897286	0.0002271056
0.21377319	0.039207593	0.00079176412	0.0002271056
0.21397012	0.035409037	0.00070999813	0.00022709918
0.21416707	0.03351042	0.00067311764	0.00022709343
0.21436401	0.034243785	0.00068682618	0.00022709343
0.21456094	0.034511093	0.0006945855	0.00022709343
0.21475787	0.042282429	0.00085171702	0.00022708128
0.21495481	0.041275032	0.0008297633	0.00022709343
0.21515174	0.024580089	0.00049288734	0.00022709343
0.21534868	0.034383953	0.00069114746	0.00022708128
0.21554561	0.043227665	0.00087237102	0.00022709343
0.21574254	0.033496734	0.00067260384	0.00022708128
0.21593948	0.03621399	0.00072993385	0.00022709918
0.21613643	0.037356321	0.00075194187	0.00022708128
0.21633336	0.036900368	0.00074270501	0.00022708128
0.21653029	0.032867707	0.00066153711	0.00022708128
0.21672723	0.033863731	0.00067901687	0.00022709343
0.21692416	0.037113402	0.00074905314	0.00022708128
0.21712109	0.04147844	0.00083598838	0.00022708128
0.21731803	0.036960986	0.00074434991	0.00022708128
0.21751496	0.04199259	0.00084761385	0.00022708128
0.2177119	0.046435844	0.00093268073	0.00022708128
0.21790883	0.040714584	0.000825105	0.00022708702
0.21810578	0.043709151	0.00087876257	0.00022708128
0.21830271	0.052892562	0.0010702184	0.00022708128
0.21849965	0.039917696	0.00080471311	0.00022706912
0.21869658	0.033960719	0.00068183604	0.00022708128
0.21889351	0.042288557	0.00085625896	0.00022706912
0.21909045	0.046702173	0.00094057096	0.00022706912
0.21928738	0.037969459	0.00076667394	0.00022706912
0.21948431	0.035478547	0.00071616255	0.00022706912
0.21968125	0.033703245	0.00067873206	0.00022706912
0.21987818	0.037144035	0.00074988714	0.00022707487
0.22007513	0.037658617	0.00075736782	0.00022706912
0.22027206	0.033181254	0.00067081442	0.00022706912
0.220469	0.045566503	0.00091826532	0.00022706912
0.22066593	0.039735101	0.00080363831	0.00022705697
0.22086287	0.053108275	0.0010723774	0.00022705697
0.2210598	0.046147507	0.00093160255	0.00022705697
0.22125673	0.048407115	0.00097959896	0.00022705697
0.22145367	0.044214875	0.00089421787	0.00022705697
0.2216506	0.039669421	0.00080155832	0.00022706912
0.22184753	0.033744857	0.00067968189	0.00022707487
0.22204448	0.041908715	0.00084861094	0.00022705697
0.22224142	0.036303632	0.00073235831	0.00022705697
0.22243835	0.042061854	0.0008490514	0.00022705697
0.22263528	0.038557213	0.00078010181	0.00022705697
0.22283222	0.034539472	0.00069484231	0.00022704482
0.22302915	0.031640299	0.00064078259	0.00022705697
0.22322609	0.030978935	0.00062473462	0.00022704482
0.22342302	0.039046444	0.00078662223	0.00022704482
0.22361995	0.039020341	0.00078984775	0.00022705697
0.22381689	0.042526837	0.00085968699	0.0002270627
0.22401384	0.032985386	0.00066965679	0.00022704482
0.22421077	0.0345679	0.00069650169	0.00022704482
0.2244077	0.031884059	0.00064394128	0.00022704482
0.22460464	0.042030796	0.00085274508	0.00022704482
0.22480157	0.038193017	0.00076916377	0.00022704482
0.2249985	0.039832287	0.00081085559	0.00022704482
0.22519544	0.043032788	0.00086639816	0.00022704482
0.22539237	0.044074845	0.00089387072	0.00022704482
0.22558931	0.040150564	0.00081618741	0.00022704482
0.22578624	0.032693092	0.00065585534	0.00022703838
0.22598319	0.037484381	0.00076012372	0.00022703265
0.22618012	0.036792062	0.00074295327	0.00022704482
0.22637706	0.041858517	0.00085142261	0.00022704482
0.22657399	0.047244094	0.00095721515	0.00022703265
0.22677092	0.034825869	0.0007042127	0.00022703265
0.22696786	0.041044775	0.00083124836	0.00022703265
0.22716479	0.033540372	0.00067790115	0.00022704482
0.22736172	0.033040568	0.00067133812	0.00022703265
0.22755866	0.035123967	0.00070893549	0.00022703265
0.22775559	0.031759299	0.00064440141	0.00022703265
0.22795253	0.034411278	0.00069606653	0.00022703838
0.22814947	0.030315615	0.00061261584	0.00022703265
0.22834641	0.037313432	0.00075521233	0.00022703265
0.22854334	0.039883673	0.00080823922	0.0002270205
0.22874027	0.041614123	0.00084808096	0.00022703265
0.22893721	0.042509288	0.00085849973	0.00022703265
0.22913414	0.04076539	0.00082656305	0.0002270205
0.22933108	0.04152824	0.00084153429	0.0002270205
0.22952801	0.03668195	0.00074403238	0.0002270205
0.22972494	0.030403998	0.00061529723	0.0002270205
0.22992188	0.040630184	0.00082202011	0.00022703838
0.23011883	0.033389688	0.00068145408	0.0002270205
0.23031576	0.039636664	0.00080074137	0.0002270205
0.23051269	0.039117768	0.00079235341	0.0002270205
0.23070963	0.035416666	0.00071842148	0.0002270205
0.23090656	0.035240464	0.00071306602	0.00022700834
0.23110349	0.039010067	0.00079360837	0.00022700834
0.23130043	0.040884439	0.00082974933	0.0002270205
0.23149736	0.032029949	0.00064836669	0.0002270205
0.2316943	0.041771095	0.0008485844	0.0002270205
0.23189123	0.03611457	0.0007307395	0.00022701408
0.23208818	0.032690696	0.00066464324	0.00022700834
0.23228511	0.035387177	0.00071651745	0.00022700834
0.23248205	0.030087756	0.00061054417	0.00022700834
0.23267898	0.042731464	0.0008695788	0.00022700834
0.23287591	0.046965919	0.00095216214	0.00022700834
0.23307285	0.029694688	0.00060238584	0.00022700834
0.23326978	0.033361133	0.00067681365	0.00022700834
0.23346671	0.043823037	0.00089045818	0.00022700834
0.23366365	0.039949536	0.00081398216	0.00022700834
0.23386058	0.038397327	0.00077920483	0.00022701408
0.23405753	0.046655655	0.00094251725	0.00022699618
0.23425446	0.029869584	0.00060734845	0.00022700834
0.2344514	0.038171142	0.0007760154	0.00022699618
0.23464833	0.041370664	0.000840822	0.00022699618
0.23484527	0.031772576	0.00064446544	0.00022700834
0.2350422	0.031354517	0.00063636154	0.00022700834
0.23523913	0.03443931	0.00070077379	0.00022699618
0.23543607	0.042464614	0.00086169614	0.00022699618
0.235633	0.033444814	0.00067903922	0.00022699618
0.23582993	0.037285294	0.00075794535	0.00022700192
0.23602688	0.043789472	0.00089373079	0.00022698403
0.23622382	0.040850352	0.00082923623	0.00022699618
0.23642075	0.047161937	0.00095866143	0.00022699618
0.23661768	0.047359597	0.0009637787	0.00022698403
0.23681462	0.044612795	0.0009101241	0.00022698403
0.23701155	0.033430841	0.00067818316	0.00022699618
0.23720849	0.033416875	0.00067818834	0.00022698403
0.23740542	0.03190596	0.00064909906	0.00022699618
0.23760235	0.03438155	0.00069901132	0.00022698403
0.23779929	0.038639229	0.00078686344	0.00022698977
0.23799624	0.037979968	0.0007709472	0.00022698403
0.23819317	0.035729297	0.00072754786	0.00022698403
0.2383901	0.034005038	0.00069214613	0.00022698403
0.23858704	0.033095937	0.00067258923	0.00022698403
0.23878397	0.028080469	0.00057003711	0.00022698403
0.2389809	0.036073826	0.00073406356	0.00022697187
0.23917784	0.029424127	0.00059831934	0.00022697187
0.23937477	0.026116259	0.00053121627	0.00022698403
0.23957171	0.031407036	0.00063738524	0.00022697187
0.23976864	0.028356964	0.00057454297	0.00022697762
0.23996559	0.042947367	0.00087609323	0.00022697187
0.24016252	0.029187817	0.00059518334	0.00022697187
0.24035946	0.031955689	0.00065439875	0.00022697187
0.24055639	0.02874049	0.00058649754	0.00022697187
0.24075332	0.034497444	0.00070668984	0.00022697187
0.24095026	0.032175031	0.00066102954	0.00022697187
0.24114719	0.040425532	0.00082838919	0.00022697187
0.24134412	0.033832975	0.00069541077	0.00022697187
0.24154106	0.034943916	0.00072134665	0.00022697187
0.24173799	0.041001294	0.00084672234	0.00022696547
0.24193494	0.035590276	0.00073642295	0.00022697187
0.24213187	0.038726334	0.00079751841	0.00022695972
0.24232881	0.038478356	0.00079988298	0.00022697187
0.24252574	0.040227372	0.00083587813	0.00022695972
0.24272268	0.041048035	0.00085231446	0.00022695972
0.24291961	0.037868779	0.00078931946	0.00022695972
0.24311654	0.036553524	0.00075737626	0.00022695972
0.24331348	0.036872502	0.00077207579	0.00022695972
0.24351041	0.03042328	0.00063351094	0.00022695972
0.24370734	0.035211269	0.00073343236	0.00022696547
0.24390429	0.033362988	0.00069848495	0.00022695972
0.24410123	0.042933811	0.00090311689	0.00022695972
0.24429816	0.032859679	0.00068751129	0.00022694757
0.24449509	0.024211969	0.00051196344	0.00022694757
0.24469203	0.02764977	0.00058855821	0.00022695972
0.24488896	0.043111529	0.00092793413	0.00022694757
0.2450859	0.030559473	0.00065717968	0.00022694757
0.24528283	0.039753903	0.0008594988	0.00022694757
0.24547976	0.03624225	0.00078584772	0.00022694757
0.2456767	0.02935515	0.00063776929	0.0002269533
0.24587364	0.025493026	0.0005529336	0.00022694757
0.24607058	0.025740651	0.00056101085	0.0002269354
0.24626751	0.019864341	0.00043145186	0.00022694757
0.24646445	0.021171836	0.00046415211	0.00022694757
0.24666138	0.022113021	0.00048385313	0.00022694757
0.24685831	0.023186976	0.00050868548	0.0002269354
0.24705525	0.031296574	0.00069109892	0.0002269354
0.24725218	0.034947578	0.00077481964	0.0002269354
0.24744911	0.033685271	0.00074864825	0.00022694757
0.24764605	0.034482758	0.0007649606	0.00022694115
0.247843	0.03021148	0.00067204231	0.0002269354
0.24803993	0.03169734	0.00071032764	0.0002269354
0.24823686	0.030240903	0.0006785962	0.0002269354
0.2484338	0.039714869	0.00088928151	0.00022692325
0.24863073	0.034979425	0.00078665896	0.0002269354
0.24882767	0.034465022	0.00077532447	0.00022692325
0.2490246	0.029487843	0.00066496077	0.00022692325
0.24922153	0.039184954	0.00088910997	0.00022692325
0.24941847	0.034250129	0.0007735921	0.00022692325
0.2496154	0.036900368	0.00084032427	0.000226929
0.24981235	0.029567054	0.00067237864	0.00022692965
0.25000927	0.038642298	0.0008759785	0.00022692325
0.2502062	0.037333332	0.00085551484	0.0002269354
0.25040314	0.029661017	0.00067602692	0.0002269111
0.25060007	0.034613304	0.0007970779	0.0002269226
0.25079703	0.02724359	0.00062289636	0.0002269111
0.25099397	0.022031166	0.00050395157	0.0002269111
0.2511909	0.026587086	0.00061208062	0.0002269111
0.25138783	0.031771675	0.00073034974	0.0002269111
0.25158477	0.035967302	0.0008325036	0.0002269111
0.2517817	0.039847162	0.00092358928	0.0002269111
0.25197864	0.036164384	0.0008393568	0.0002269111
0.25217557	0.028808864	0.00067071075	0.0002269111
0.2523725	0.029088913	0.00067471579	0.0002269111
0.25256944	0.038910504	0.00090898393	0.0002269111
0.25276637	0.0283176	0.0006593194	0.0002269111
0.2529633	0.025683975	0.00060014083	0.0002268868
0.25316024	0.037725225	0.00088792038	0.0002269111
0.25335717	0.031836271	0.00075200014	0.0002269111
0.25355411	0.025190393	0.00060208025	0.0002269111
0.25375104	0.028880866	0.00069997465	0.0002269111
0.25394797	0.036231883	0.00088291639	0.0002268868
0.25414491	0.03194103	0.00078244496	0.0002269111
0.25434184	0.02972802	0.00073920575	0.0002269111
0.25453877	0.035807293	0.00090376119	0.0002269226
0.25473574	0.038952317	0.00099983695	0.0002268868
0.25493267	0.037465941	0.00096761977	0.0002269111
0.25512961	0.036161337	0.0009429293	0.0002269111
0.25532654	0.029808374	0.00078442588	0.0002269111
0.25552347	0.037144937	0.00099215971	0.0002268868
0.25572041	0.026515152	0.00071836641	0.0002269111
0.25591734	0.034035657	0.00095545163	0.0002269111
0.25611427	0.036113501	0.0010442936	0.0002268868
0.25631121	0.036529679	0.0010891358	0.0002268868
0.25650814	0.035815269	0.0010831677	0.0002268868
0.25670508	0.040658277	0.0012490258	0.0002268868
0.25690201	0.050739959	0.001629663	0.0002268868
0.25709894	0.043771043	0.001444362	0.0002268868
0.25729588	0.047225501	0.001599106	0.0002268868
0.25749281	0.027577939	0.00093081489	0.0002268868
0.25768974	0.03018868	0.0010449919	0.0002268868
0.25788668	0.034928847	0.0012265679	0.0002268868
0.25808361	0.030707611	0.0010937529	0.0002268868
0.25828055	0.03009576	0.0010811939	0.0002268868
0.25847748	0.025751073	0.00094101945	0.00022689829
0.25867444	0.043668121	0.0016392336	0.00022686248
0.25887138	0.05351682	0.0020484694	0.00022686248
0.25906831	0.033950616	0.0013012231	0.00022686248
0.25926524	0.030110935	0.0011642327	0.0002268868
0.25946218	0.018394649	0.00071125204	0.00022686248
0.25965911	0.030560272	0.0012167449	0.0002268868
0.25985605	0.036395147	0.0014763901	0.0002268868
0.26005298	0.036458332	0.0014731392	0.00022686248
0.26024991	0.020979021	0.00083417579	0.00022686248
0.26044685	0.044642858	0.0018438654	0.0002268868
0.26064378	0.039215688	0.0016155561	0.00022686248
0.26084071	0.023381295	0.00094741239	0.00022686248
0.26103765	0.022099448	0.0009088401	0.00022686248
0.26123458	0.029629629	0.001230553	0.00022686248
0.26143152	0.024528302	0.00102461	0.0002268868
0.26162845	0.022181146	0.00091388769	0.00022686248
0.26182538	0.024856597	0.0010452624	0.00022686248
0.26202232	0.023483366	0.00099559105	0.00022686248
0.26221925	0.021825397	0.00091938482	0.00022686248
0.26241618	0.019120459	0.00079393387	0.00022684968
0.26261315	0.025793651	0.0010835055	0.00022683818
0.26281008	0.032520324	0.0014150854	0.00022686248
0.26300701	0.030800821	0.0013497786	0.00022686248
0.26320395	0.024144869	0.0010300883	0.00022683818
0.26340088	0.038054969	0.0017022705	0.00022686248
0.26359782	0.033472802	0.0014777514	0.00022683818
0.26379475	0.03846154	0.0017296427	0.00022686248
0.26399168	0.03846154	0.0017239811	0.00022683818
0.26418862	0.045652173	0.0020745504	0.00022683818
0.26438555	0.040268455	0.0018530441	0.00022683818
0.26458248	0.041189931	0.0019044905	0.00022683818
0.26477942	0.020179372	0.00090188545	0.00022683818
0.26497635	0.020979021	0.00095606426	0.00022686248
0.26517329	0.023310022	0.0010689123	0.00022683818
0.26537022	0.036674816	0.0017541078	0.00022683818
0.26556715	0.045673076	0.0021758156	0.00022683818
0.26576409	0.042079207	0.0020335298	0.00022683818
0.26596102	0.027777778	0.0013326086	0.00022683818
0.26615795	0.041450776	0.0020454456	0.00022683818
0.26635489	0.030690538	0.0014765991	0.00022684968
0.26655185	0.02917772	0.0014347	0.00022681388
0.26674879	0.060273971	0.0030798912	0.00022683818
0.26694572	0.024324324	0.0011771562	0.00022683818
0.26714265	0.021917809	0.001074609	0.00022681388
0.26733959	0.025423728	0.0012579355	0.00022681388
0.26753652	0.037142858	0.0019102119	0.00022681388
0.26773345	0.03021148	0.0015777431	0.00022683818
0.26793039	0.032835823	0.0016974376	0.00022683818
0.26812732	0.032544378	0.0016903034	0.00022683818
0.26832426	0.03125	0.001659877	0.00022683818
0.26852119	0.057142857	0.0031339016	0.00022683818
0.26871812	0.048231512	0.0026464788	0.00022683818
0.26891506	0.038585208	0.0020981946	0.00022681388
0.26911199	0.053872053	0.0030191604	0.00022683818
0.26930892	0.033557046	0.0018472546	0.00022683818
0.26950586	0.020761246	0.0011167772	0.00022683818
0.26970279	0.037800688	0.0021164322	0.00022681388
0.26989973	0.025362318	0.0014159542	0.00022681388
0.27009666	0.026217228	0.0014882386	0.00022681388
0.27029359	0.0076335878	0.00033411308	0.00022684968
0.27049056	0.014652015	0.00076938467	0.00022681388
0.27068749	0.0038910506	0	0.00022681388
0.27088442	0.0040160641	0	0.00022681388
0.27108136	0.0041841003	0	0.00022681388
0.27127829	0.0084033618	0.00038597916	0.00022681388
0.27147523	0.0070921984	0	0.00022681388
0.27167216	0	0	0.00022681388
0.27186909	0.040816326	0.0041657989	0.00022681388
0.27206603	0	0	0.00022681388
0.27226296	0	0	0.00022681388
