#   DataFileName=PAL30_115C_WAXS_08172017.tif
#   DataFileType=.tif
#   
#   DataFilePath=E:DATA:PAL30_08262017:
#   
#   Processed on=Wed, Jan 16, 2019,2:42:33 AM
#   Units=Arbitrary
#   SampleThickness=1
#   SampleTransmission=1
#   CorrectionFactor=1
#   SampleMeasurementTime=1
#   EmptyMeasurementTime=1
#   BackgroundMeasTime=1
#   SampleI0=1
#   EmptyI0=1
#   Nika_SampleToDetectorDistacne=1552.1
#   Nika_Wavelength=1.54
#   Nika_XrayEnergy=8.0509
#   Nika_PixelSizeX=0.075
#   Nika_PixelSizeY=0.075
#   Nika_HorizontalTilt=0
#   Nika_VerticalTilt=0
#   Nika_BeamCenterX=1540.3
#   Nika_BeamCenterY=830.17
#   Nika_BeamSizeX=0
#   Nika_BeamCenterY=830.17
#   CalibrationFormula=1*((Sa2D))
#   CurrentMaskFileName=PAL30_30C_WAXS_mask.hdf
#   QvectorMaxNumPnts=1
#   QvectorNumberPoints=1383
#   CircularAverage=1
#   PolarizationCorrection=None
#   UncertainityCalculationMethod=OldNikaMethod

0.0060065244	5.5	3.8729835	0.00022756745
0.00620346	3.8800001	0.7708869	0.00022756765
0.0064003952	2.8245614	0.37223527	0.00022756765
0.0065973303	3.1500001	0.35082406	0.00022756765
0.0067942655	4.9897957	0.50105405	0.00022756765
0.0069912006	6.6074767	0.62310779	0.00022756745
0.0071881362	8.1557379	0.71665776	0.00022756727
0.0073850714	8.7480917	0.7459771	0.00022756727
0.0075820065	9.3724136	0.76214957	0.00022756727
0.0077789417	8.4625854	0.68529689	0.00022756745
0.0079758773	7.550633	0.59088993	0.00022756746
0.0081728119	6.5828223	0.50736773	0.00022756707
0.0083697475	5.5337081	0.40819806	0.00022756671
0.0085666822	4.8808289	0.34627876	0.00022756783
0.0087636178	4.6153846	0.32601327	0.00022756783
0.0089605534	3.9668245	0.26932374	0.00022756746
0.0091574881	3.4585152	0.22525406	0.00022756707
0.0093544237	3.22	0.20112966	0.00022756671
0.0095513584	2.8365018	0.17295921	0.00022756707
0.009748294	2.6507354	0.15892163	0.00022756707
0.0099452296	2.299639	0.13678734	0.00022756595
0.010142164	2.1798561	0.12913336	0.00022756707
0.0103391	1.8249158	0.10506504	0.00022756671
0.010536035	1.979661	0.11416663	0.00022756707
0.01073297	1.8585526	0.10550545	0.00022756783
0.010929906	1.4887459	0.08338318	0.00022756746
0.01112684	1.5974441	0.089551538	0.00022756783
0.011323776	1.2379518	0.067342497	0.00022756746
0.011520711	1.2012196	0.065709956	0.00022756707
0.011717646	1.2071006	0.065170117	0.00022756707
0.011914582	1.2222222	0.065491304	0.00022756746
0.012111517	1.0550724	0.056257542	0.00022756783
0.012308452	0.90659338	0.047094978	0.00022756671
0.012505387	0.89548022	0.047111329	0.00022756783
0.012702323	0.9100529	0.046463154	0.00022756783
0.012899258	0.90348524	0.046352386	0.00022756671
0.013096193	0.77486908	0.039343208	0.00022756707
0.013293128	0.7647059	0.038407739	0.00022756671
0.013490063	0.74226803	0.037393458	0.00022756707
0.013686999	0.69852942	0.034381621	0.00022756707
0.013883934	0.72506082	0.035528075	0.00022756671
0.014080869	0.58612442	0.028495071	0.00022756707
0.014277805	0.60000002	0.028907103	0.00022756671
0.014474739	0.52955085	0.025549524	0.0002275663
0.014671675	0.5846501	0.027567269	0.00022756707
0.014868611	0.48409089	0.022895936	0.00022756671
0.015065545	0.49010989	0.022822056	0.0002275663
0.015262481	0.44206008	0.020328315	0.00022756671
0.015459416	0.48351648	0.022534939	0.00022756595
0.01565635	0.42430705	0.019465197	0.00022756707
0.015853286	0.39702761	0.018182384	0.00022756554
0.016050221	0.38762885	0.017483372	0.00022756707
0.016247157	0.39271256	0.01758272	0.00022756707
0.016444093	0.32600001	0.014474911	0.00022756483
0.016641026	0.34538153	0.015383168	0.00022756707
0.016837962	0.36673346	0.01631478	0.00022756707
0.017034898	0.34046692	0.014931763	0.00022756554
0.017231833	0.34225622	0.014877642	0.00022756554
0.017428769	0.29601517	0.012829209	0.00022756483
0.017625703	0.31775701	0.013659031	0.00022756554
0.017822638	0.2774674	0.011906506	0.00022756554
0.018019574	0.2665441	0.011361808	0.00022756554
0.018216509	0.27919707	0.011863688	0.00022756554
0.018413445	0.25044721	0.010535532	0.00022756483
0.018610379	0.22261484	0.0092938235	0.00022756554
0.018807314	0.23211169	0.0096354233	0.00022756554
0.01900425	0.24956672	0.010336747	0.00022756554
0.019201186	0.21503496	0.008943744	0.00022756554
0.019398121	0.19765495	0.0080373194	0.00022756483
0.019595055	0.19661017	0.0080528725	0.00022756554
0.019791991	0.20991735	0.0084928218	0.00022756554
0.019988926	0.21487603	0.0086886901	0.00022756554
0.020185862	0.20751634	0.0083474508	0.00022756554
0.020382797	0.19108281	0.0075859334	0.00022756483
0.020579731	0.21521036	0.0086023537	0.00022756403
0.020776667	0.18495297	0.0072890539	0.00022756403
0.020973602	0.17840375	0.0070205526	0.00022756554
0.021170538	0.15468749	0.0060789385	0.00022756403
0.021367474	0.16591252	0.0064120321	0.0002275633
0.021564407	0.15170279	0.0059314738	0.00022756403
0.021761343	0.16591929	0.0063764798	0.00022756403
0.021958278	0.10558069	0.0040681851	0.00022756403
0.022155214	0.1585903	0.006044528	0.00022756403
0.02235215	0.13372093	0.0050672977	0.0002275633
0.022549083	0.16152717	0.0061542243	0.00022756403
0.022746019	0.12907802	0.004831505	0.00022756403
0.022942955	0.16786227	0.0063248072	0.00022756403
0.02313989	0.1513437	0.0056657162	0.00022756403
0.023336826	0.13389121	0.0049721594	0.0002275633
0.02353376	0.12376934	0.0046088509	0.00022756403
0.023730695	0.15603799	0.0057187066	0.00022756403
0.023927631	0.14206897	0.0052477526	0.0002275625
0.024124566	0.11796246	0.0042926921	0.00022756403
0.024321502	0.13941018	0.0050763316	0.00022756179
0.024518436	0.11677852	0.0042503695	0.0002275625
0.024715371	0.13175231	0.0047537703	0.0002275625
0.024912307	0.11492734	0.0041518859	0.0002275625
0.025109243	0.10230179	0.0036336635	0.0002275625
0.025306178	0.11125485	0.003974807	0.00022756179
0.025503112	0.10855683	0.0038515076	0.0002275625
0.025700048	0.13468869	0.0047784634	0.0002275625
0.025896983	0.10050891	0.0035599091	0.0002275625
0.026093919	0.10098522	0.0035206657	0.00022756097
0.026290854	0.10669975	0.0037366974	0.00022756179
0.026487788	0.09878049	0.0034281786	0.0002275625
0.026684724	0.09779951	0.0033990436	0.00022756097
0.026881659	0.10353228	0.0035876234	0.0002275625
0.027078595	0.09188544	0.0031537164	0.00022756097
0.027275531	0.096269555	0.0033200891	0.00022756179
0.027472464	0.10011642	0.0033951981	0.00022756097
0.0276694	0.089834519	0.0030667691	0.00022756097
0.027866336	0.112529	0.0038102395	0.00022756097
0.028063271	0.10930233	0.0037052117	0.00022756097
0.028260207	0.1025641	0.0034799178	0.00022756026
0.028457141	0.085297421	0.0028383094	0.00022756097
0.028654076	0.097616345	0.0032692202	0.00022756097
0.028851012	0.11521253	0.0038333908	0.00022756097
0.029047947	0.11534154	0.0038405661	0.00022756097
0.029244883	0.098987624	0.0033011532	0.00022756026
0.029441817	0.09694989	0.0031823106	0.00022756097
0.029638752	0.0989011	0.0032604381	0.00022755946
0.029835688	0.086299889	0.0028146401	0.00022756097
0.030032624	0.078494623	0.0025556779	0.00022755946
0.030229559	0.094155841	0.0030796668	0.00022755875
0.030426493	0.095744684	0.0031032213	0.00022755946
0.030623429	0.10436635	0.0033888246	0.00022755946
0.030820364	0.076367386	0.0024356421	0.00022755946
0.0310173	0.091482647	0.0029501929	0.00022755946
0.031214235	0.075726144	0.0024220855	0.00022755946
0.031411171	0.085215606	0.0027117869	0.00022755875
0.031608105	0.10031024	0.00320799	0.00022755571
0.031805038	0.079878666	0.0025226837	0.00022756017
0.032001976	0.07886754	0.0024921445	0.00022755875
0.03219891	0.081407033	0.002565294	0.00022756017
0.032395847	0.075924076	0.0023842452	0.00022755875
0.032592781	0.095332675	0.0029876889	0.00022755875
0.032789715	0.087084152	0.0027086362	0.00022756017
0.032986652	0.075862072	0.0023644024	0.00022755571
0.033183586	0.072054528	0.0022334298	0.00022755713
0.033380523	0.074181117	0.0022881853	0.00022755875
0.033577457	0.073217727	0.0022570735	0.00022755571
0.033774391	0.077216394	0.0023693554	0.00022755713
0.033971328	0.10687023	0.0032867081	0.00022755571
0.034168262	0.069063388	0.0021094668	0.00022756017
0.0343652	0.082940623	0.0025309992	0.00022755571
0.034562133	0.065923862	0.0019947181	0.00022755571
0.034759067	0.07513915	0.0022750653	0.00022756017
0.034956004	0.070370369	0.0021281536	0.00022755571
0.035152938	0.062100455	0.0018612143	0.00022755713
0.035349876	0.067518249	0.0020258105	0.00022755571
0.035546809	0.07168784	0.0021460736	0.00022755571
0.035743743	0.070652172	0.0021126075	0.00022755713
0.035940681	0.062780268	0.0018663204	0.00022755571
0.036137614	0.082593247	0.0024488941	0.00022755713
0.036334552	0.071936056	0.0021297934	0.00022755266
0.036531486	0.079365082	0.0023441196	0.00022755266
0.036728419	0.07495591	0.0022134017	0.00022755713
0.036925357	0.077391304	0.0022699852	0.00022755571
0.037122291	0.079930492	0.0023436167	0.00022755713
0.037319228	0.080589257	0.0023600075	0.00022755571
0.037516162	0.083969466	0.0024323754	0.00022755266
0.037713096	0.077120826	0.0022439661	0.00022755713
0.037910033	0.082623512	0.0023981573	0.00022755266
0.038106967	0.06955047	0.0020134097	0.00022755409
0.038303904	0.070886075	0.0020471981	0.00022755266
0.038500838	0.074043259	0.0021234325	0.00022755266
0.038697772	0.060330577	0.0017221902	0.00022755409
0.038894709	0.05629139	0.0016065496	0.00022755266
0.039091643	0.0802316	0.0022954883	0.00022755409
0.03928858	0.061475411	0.0017474035	0.00022755266
0.039485514	0.06580016	0.0018642745	0.00022755266
0.039682448	0.070674248	0.0020032732	0.00022755409
0.039879385	0.085140564	0.0024014462	0.00022755266
0.040076319	0.0704	0.0019796239	0.00022755409
0.040273257	0.06661316	0.0018756497	0.00022754962
0.04047019	0.063643597	0.0017834189	0.00022754962
0.040667124	0.058776807	0.0016450153	0.00022755409
0.040864062	0.073494919	0.0020427811	0.00022755266
0.041060995	0.060653187	0.0016797255	0.00022755409
0.041257933	0.067862712	0.0018838914	0.00022754962
0.041454867	0.065369651	0.0018120968	0.00022755266
0.0416518	0.05680934	0.0015738985	0.00022755409
0.041848738	0.06641221	0.0018240445	0.00022754962
0.042045671	0.076045625	0.002086712	0.00022754801
0.042242609	0.055513307	0.0015197546	0.00022754657
0.042439543	0.060744114	0.0016634408	0.00022754353
0.042636476	0.061607815	0.0016787275	0.00022754801
0.042833414	0.066265061	0.0018082311	0.00022754657
0.043030348	0.061986558	0.0016838744	0.00022754801
0.043227285	0.083456427	0.0022586365	0.00022754353
0.043424219	0.062638171	0.0016900362	0.00022754353
0.043621153	0.0625	0.0016849181	0.00022754801
0.04381809	0.067448683	0.0018156865	0.00022754353
0.044015024	0.047549378	0.001275673	0.00022754495
0.044211961	0.069565214	0.0018625073	0.00022754353
0.044408895	0.063309349	0.0016888003	0.00022754353
0.044605829	0.067528732	0.0018005419	0.00022754495
0.044802766	0.048063129	0.00127754	0.00022754353
0.0449997	0.053533189	0.0014198836	0.00022754495
0.045196638	0.061484098	0.0016252178	0.00022754353
0.045393571	0.054609928	0.0014448711	0.00022754353
0.045590505	0.062368605	0.0016414615	0.00022754495
0.045787442	0.053997196	0.0014211019	0.00022754048
0.045984376	0.054166667	0.0014180213	0.00022754191
0.046181314	0.049965303	0.0013072698	0.00022754353
0.046378247	0.053176794	0.0013885935	0.00022754048
0.046575181	0.066298343	0.0017330218	0.00022754191
0.046772119	0.053461276	0.0013897103	0.00022754353
0.046969052	0.055139549	0.0014284527	0.00022754495
0.04716599	0.049079753	0.0012729118	0.00022754048
0.047362924	0.047169812	0.0012148399	0.00022754048
0.047559857	0.056300268	0.0014476785	0.00022754495
0.047756795	0.050369374	0.0012963297	0.00022754048
0.047953729	0.052984573	0.0013628164	0.00022754495
0.048150666	0.055076312	0.0014092015	0.00022754048
0.0483476	0.05573988	0.0014257033	0.00022754048
0.048544534	0.064178124	0.0016325988	0.00022754191
0.048741471	0.05800923	0.0014778906	0.00022753744
0.048938405	0.058631923	0.0014860547	0.00022754191
0.049135342	0.055045873	0.0013983484	0.00022754048
0.049332276	0.047310434	0.0011940121	0.00022753744
0.04952921	0.048512291	0.0012241816	0.00022753887
0.049726147	0.044487428	0.0011198494	0.00022753744
0.049923081	0.05383154	0.001345821	0.00022754191
0.050120018	0.047314577	0.0011851434	0.00022753744
0.050316952	0.064619325	0.0016238379	0.00022753744
0.050513886	0.041904762	0.001046492	0.00022753887
0.050710823	0.039949272	0.00099649839	0.00022753744
0.050907757	0.038485412	0.0009491095	0.00022753887
0.051104695	0.041848846	0.0010376794	0.00022753744
0.051301628	0.0443196	0.0010976008	0.00022753744
0.051498562	0.053682897	0.0013310903	0.00022753887
0.0516955	0.060606062	0.0014973937	0.00022753744
0.051892433	0.05997552	0.0014736147	0.00022753887
0.052089371	0.067901231	0.0016769078	0.0002275344
0.052286305	0.044323012	0.0010820797	0.00022753744
0.052483238	0.051063828	0.0012495412	0.00022753583
0.052680176	0.055927053	0.0013703466	0.0002275344
0.052877109	0.045592707	0.0011141185	0.00022753887
0.053074047	0.059674501	0.0014555585	0.0002275344
0.053270981	0.058507461	0.0014198307	0.00022753744
0.053467914	0.049522672	0.0012000664	0.00022753887
0.053664852	0.056776557	0.0013929403	0.0002275344
0.053861786	0.052012384	0.0012843417	0.00022753583
0.054058723	0.061021172	0.0015113695	0.0002275344
0.054255657	0.048855904	0.0012050691	0.0002275344
0.054452591	0.056285176	0.0013971908	0.00022753583
0.054649528	0.058016218	0.0014389873	0.0002275344
0.054846462	0.052037619	0.0012924619	0.00022753583
0.055043399	0.047258981	0.0011761885	0.00022753136
0.055240333	0.056854073	0.001419676	0.0002275344
0.055437267	0.052299935	0.0013026337	0.00022753583
0.055634204	0.046933666	0.0011640622	0.00022753136
0.055831138	0.0569981	0.0014250751	0.00022753279
0.056028076	0.051604781	0.0012849311	0.00022753136
0.056225009	0.061946902	0.0015465535	0.00022753136
0.056421943	0.051052969	0.0012801897	0.00022753279
0.05661888	0.042740416	0.0010588046	0.00022753136
0.056815814	0.047768697	0.001187133	0.00022753279
0.057012752	0.044936709	0.0011203835	0.00022753136
0.057209685	0.05618687	0.0014013663	0.00022752832
0.057406619	0.049242426	0.0012274396	0.00022753279
0.057603557	0.056222364	0.0014026946	0.00022753136
0.05780049	0.045569621	0.001135453	0.00022753279
0.057997428	0.047110554	0.0011708625	0.00022752832
0.058194362	0.051136363	0.0012749294	0.00022752832
0.058391295	0.062539481	0.001562459	0.00022752974
0.058588233	0.050125312	0.0012446583	0.00022752832
0.058785167	0.052531645	0.0013109146	0.00022752974
0.058982104	0.052168448	0.0012979147	0.00022752832
0.059179038	0.039572865	0.00098244497	0.00022752832
0.059375972	0.047828823	0.0011895851	0.00022752974
0.059572909	0.062656641	0.0015562677	0.00022752528
0.059769843	0.056080654	0.0013964977	0.00022752974
0.05996678	0.032218091	0.00079114694	0.00022752528
0.060163714	0.060491495	0.0015078642	0.00022752528
0.060360648	0.061720699	0.001529176	0.00022752974
0.060557585	0.046963055	0.0011641013	0.00022752528
0.060754519	0.045426261	0.0011242421	0.0002275267
0.060951456	0.054307114	0.0013465422	0.00022752528
0.06114839	0.051649034	0.0012781977	0.00022752528
0.061345324	0.042341221	0.0010467753	0.0002275267
0.061542261	0.057142857	0.0014140967	0.00022752528
0.061739195	0.046019901	0.0011374587	0.0002275267
0.061936133	0.042777434	0.0010549905	0.00022752528
0.062133066	0.045173269	0.0011118799	0.00022752528
0.06233	0.046769232	0.0011500632	0.00022752528
0.062526934	0.061804697	0.0015264866	0.0002275251
0.062723875	0.037220843	0.00091619533	0.00022751919
0.062920809	0.045622688	0.0011229698	0.00022752528
0.063117743	0.053316802	0.0013176755	0.00022751919
0.063314676	0.059363525	0.0014589111	0.00022751919
0.06351161	0.046426389	0.0011376387	0.00022752814
0.063708551	0.052728388	0.0012953841	0.00022751919
0.063905485	0.05686032	0.0014037881	0.00022751919
0.064102419	0.053048782	0.0012998299	0.00022751919
0.064299352	0.051439069	0.0012629787	0.00022752528
0.064496286	0.047589995	0.0011667492	0.00022752205
0.064693227	0.047995139	0.0011735475	0.00022751919
0.064890161	0.043030303	0.0010502582	0.00022751919
0.065087095	0.041539401	0.0010174004	0.00022752528
0.065284029	0.046426389	0.0011378392	0.00022752528
0.065480962	0.044188861	0.0010775819	0.00022752205
0.065677904	0.047533091	0.0011568269	0.00022752528
0.065874837	0.042347249	0.0010337743	0.00022751919
0.066071771	0.050571945	0.001231349	0.00022751919
0.066268705	0.045949213	0.0011203384	0.00022751919
0.066465639	0.040337145	0.00098084088	0.00022752205
0.06666258	0.044910181	0.0010899785	0.00022751919
0.066859514	0.04118716	0.0010044844	0.00022751919
0.067056447	0.045184303	0.0010917045	0.00022751919
0.067253381	0.045427375	0.0011014978	0.00022751919
0.067450315	0.045427375	0.0011020795	0.00022751596
0.067647256	0.035329342	0.0008559188	0.00022751919
0.06784419	0.041966427	0.0010188007	0.00022751919
0.068041123	0.042011835	0.0010119567	0.00022751311
0.068238057	0.044457618	0.0010735411	0.00022751311
0.068434991	0.045751635	0.0011062089	0.00022752205
0.068631932	0.045508273	0.0010975811	0.00022751311
0.068828866	0.038277511	0.00092696678	0.00022751311
0.0690258	0.044418469	0.0010644372	0.00022751311
0.069222733	0.045454547	0.0010962009	0.00022751311
0.069419667	0.050827425	0.0012261225	0.00022751596
0.069616608	0.048065651	0.0011550154	0.00022751311
0.069813542	0.048737522	0.0011733626	0.00022751311
0.070010476	0.037691403	0.0009064303	0.00022751311
0.07020741	0.053160071	0.0012833996	0.00022751311
0.070404343	0.051415365	0.0012272974	0.00022752205
0.070601285	0.050204322	0.0012044671	0.00022751311
0.070798218	0.055200465	0.0013229394	0.00022751311
0.070995152	0.043401759	0.0010427351	0.00022751311
0.071192086	0.056625802	0.0013594346	0.00022751311
0.071389019	0.040851552	0.00097227952	0.00022751596
0.071585961	0.042923436	0.0010261126	0.00022750701
0.071782894	0.045086704	0.0010758948	0.00022751311
0.071979828	0.044109114	0.0010546335	0.00022751311
0.072176762	0.037463978	0.00089123164	0.00022751311
0.072373696	0.042406876	0.0010072682	0.00022751596
0.072570637	0.044057973	0.0010527995	0.00022751311
0.072767571	0.046048891	0.0010901227	0.00022750701
0.072964504	0.046875	0.0011192481	0.00022750701
0.073161438	0.045996591	0.0010880975	0.00022751311
0.073358372	0.055491991	0.0013190864	0.00022750988
0.073555313	0.044354837	0.0010564725	0.00022750701
0.073752247	0.041831542	0.0009859195	0.00022751311
0.073949181	0.047945205	0.0011376342	0.00022750701
0.074146114	0.043576684	0.0010280823	0.00022751311
0.074343048	0.038790643	0.00091849035	0.00022750988
0.074539989	0.041453719	0.00098020211	0.00022750701
0.074736923	0.048071548	0.0011289866	0.00022750701
0.074933857	0.045532156	0.0010782145	0.00022750701
0.07513079	0.040540539	0.00095480168	0.00022750701
0.075327724	0.045045044	0.0010616283	0.0002275038
0.075524665	0.045633804	0.0010749144	0.00022750701
0.075721599	0.047884189	0.0011223914	0.00022750093
0.075918533	0.037725225	0.00088671257	0.00022750701
0.076115467	0.04980414	0.0011707996	0.00022750701
0.0763124	0.035175879	0.00082415744	0.00022750988
0.076509342	0.046718575	0.0010942487	0.00022750701
0.076706275	0.053858966	0.0012615506	0.00022750701
0.076903209	0.04764574	0.0011212335	0.00022750701
0.077100143	0.049035814	0.0011436602	0.00022750093
0.077297077	0.049889136	0.0011672064	0.0002275038
0.077494018	0.043381535	0.0010150902	0.00022750093
0.077690952	0.035184167	0.00081728841	0.00022750093
0.077887885	0.042339832	0.00099250581	0.00022750093
0.078084819	0.049564268	0.0011495466	0.00022750093
0.078281753	0.035773251	0.00083217723	0.0002275038
0.078478694	0.035773251	0.00083237764	0.00022750093
0.078675628	0.04915347	0.0011419079	0.00022750093
0.078872561	0.043550167	0.0010153163	0.00022750093
0.079069495	0.048501361	0.0011241465	0.00022750093
0.079266429	0.045280959	0.0010509096	0.0002275038
0.07946337	0.047982551	0.0011133276	0.00022750093
0.079660304	0.041644134	0.00096077315	0.00022750093
0.079857238	0.040415075	0.00093713013	0.00022750093
0.080054171	0.045429964	0.0010497337	0.00022750093
0.080251105	0.040871933	0.00094680884	0.0002275038
0.080448046	0.040431269	0.00093203987	0.00022749485
0.08064498	0.040149894	0.00092215912	0.00022750093
0.080841914	0.039566394	0.00091454026	0.00022750093
0.081038848	0.038626611	0.00088728342	0.00022749485
0.081235781	0.051406927	0.001188645	0.00022749772
0.081432723	0.054429028	0.0012506247	0.00022749485
0.081629656	0.051199999	0.0011750036	0.00022749485
0.08182659	0.045527585	0.0010468483	0.00022749485
0.082023524	0.043108035	0.00098766678	0.00022749485
0.082220457	0.043292359	0.00099431654	0.00022749772
0.082417399	0.051733334	0.0011879789	0.00022749485
0.082614332	0.037786055	0.00086455187	0.00022749485
0.082811266	0.042485397	0.00097272964	0.00022749485
0.0830082	0.050000001	0.0011399192	0.00022749485
0.083205134	0.048097253	0.0010986115	0.00022749163
0.083402075	0.039619651	0.00090411166	0.00022749485
0.083599009	0.034592867	0.00079056085	0.00022749485
0.083795942	0.044596013	0.001014165	0.00022748877
0.083992876	0.049764276	0.0011326279	0.00022749485
0.08418981	0.039790574	0.00090421643	0.00022749772
0.084386751	0.039769754	0.00090287178	0.00022748877
0.084583685	0.042341873	0.00096144865	0.00022749485
0.084780619	0.041124415	0.00093136152	0.00022749485
0.084977552	0.037578288	0.00085207028	0.00022748877
0.085174486	0.050672181	0.0011457938	0.00022749163
0.085371427	0.052522101	0.001190779	0.00022748877
0.085568361	0.048378795	0.0010913385	0.00022748877
0.085765295	0.038065843	0.00085596985	0.00022748877
0.085962228	0.05109489	0.0011601635	0.00022748877
0.086159162	0.048403706	0.0010913057	0.00022748555
0.086356103	0.038735982	0.00086758658	0.00022748877
0.086553037	0.04106776	0.00092415063	0.00022748877
0.086749971	0.04266125	0.00095440814	0.00022748877
0.086946905	0.035493828	0.00079800311	0.00022748268
0.087143838	0.050177395	0.0011229415	0.00022749163
0.08734078	0.043345232	0.00097206514	0.00022748877
0.087537713	0.046605878	0.0010420308	0.00022748268
0.087734647	0.044006068	0.00098294113	0.00022748877
0.087931581	0.043191057	0.00096688251	0.00022748877
0.088128515	0.035158213	0.00078151189	0.00022748555
0.088325456	0.037260827	0.00082988024	0.00022748268
0.08852239	0.034430381	0.00076736166	0.00022748268
0.088719323	0.031952072	0.00070745696	0.00022748268
0.088916257	0.03507014	0.00077841512	0.00022748268
0.089113191	0.042957041	0.00095274806	0.00022748555
0.089310132	0.045954045	0.0010196317	0.00022748268
0.089507066	0.040836655	0.00090514752	0.00022748268
0.089703999	0.044146825	0.00097693177	0.00022748268
0.089900933	0.041000001	0.00091003522	0.00022748268
0.090097867	0.052139696	0.0011497446	0.00022747947
0.090294808	0.043868396	0.00097386638	0.00022748268
0.090491742	0.048347313	0.0010679505	0.00022748268
0.090688676	0.04251112	0.00093936519	0.00022748268
0.090885609	0.048371173	0.0010687414	0.0002274766
0.091082543	0.04923683	0.0010861169	0.00022748268
0.091279477	0.045253322	0.00099782844	0.00022748555
0.091476418	0.0427939	0.00094348588	0.0002274766
0.091673352	0.041015625	0.00090022973	0.00022748268
0.091870286	0.050564557	0.0011139959	0.0002274766
0.092067219	0.042605288	0.00093662716	0.0002274766
0.092264153	0.050632913	0.0011114681	0.00022747947
0.092461094	0.037073169	0.00081260334	0.0002274766
0.092658028	0.037652813	0.00082641514	0.0002274766
0.092854962	0.030962748	0.00067468232	0.0002274766
0.093051895	0.033349443	0.00072724366	0.0002274766
0.093248829	0.043710537	0.00095672172	0.00022747337
0.09344577	0.038666021	0.00084426528	0.0002274766
0.093642704	0.044217687	0.00096921535	0.00022747052
0.093839638	0.049180329	0.0010741305	0.0002274766
0.094036572	0.04040404	0.00088016671	0.0002274766
0.094233505	0.037572253	0.00081910432	0.00022747947
0.094430447	0.034003831	0.00073832762	0.00022747052
0.09462738	0.042512078	0.00092843804	0.00022747052
0.094824314	0.043519847	0.00094520132	0.00022747052
0.095021248	0.039731931	0.00086323934	0.00022747052
0.095218182	0.039980963	0.00086625171	0.00022747337
0.095415123	0.036789298	0.00079828204	0.00022747052
0.095612057	0.034778465	0.00075349736	0.00022747052
0.09580899	0.035663337	0.00077196793	0.00022747052
0.096005924	0.033492822	0.00072648679	0.00022747052
0.096202858	0.048838314	0.0010576317	0.00022747337
0.096399799	0.0321513	0.00069350144	0.00022747052
0.096596733	0.040921919	0.00088177831	0.00022746444
0.096793666	0.04584121	0.00099077995	0.00022747052
0.0969906	0.042060491	0.00090814393	0.00022746444
0.097187534	0.042412817	0.00091465574	0.00022747337
0.097384475	0.043457724	0.00093834929	0.00022746444
0.097581409	0.03712406	0.00079893525	0.00022747052
0.097778343	0.036761284	0.00078673894	0.00022746444
0.097975276	0.033882353	0.00072934671	0.00022746444
0.09817221	0.042444032	0.00091069966	0.00022746729
0.098369151	0.041018389	0.00088478019	0.00022746444
0.098566085	0.038906902	0.00083181402	0.00022746444
0.098763019	0.039812647	0.00085650984	0.00022746444
0.098959953	0.05041628	0.0010783555	0.00022746444
0.099156886	0.039722864	0.00084776839	0.00022746121
0.099353828	0.040616248	0.00087191537	0.00022746444
0.099550761	0.044609666	0.00095525529	0.00022745834
0.099747695	0.046565238	0.00099402654	0.00022745834
0.099944629	0.043478262	0.00092923379	0.00022745834
0.10014156	0.037241381	0.00079291896	0.00022746121
0.1003385	0.038301799	0.00081728707	0.00022745834
0.10053544	0.043119267	0.00091795734	0.00022746444
0.10073237	0.042286247	0.0009060686	0.00022745834
0.1009293	0.042621449	0.00090655417	0.00022746444
0.10112624	0.03409091	0.0007214722	0.00022746121
0.10132318	0.03492647	0.00074291392	0.00022746444
0.10152011	0.036347114	0.00076933316	0.00022745834
0.10171705	0.02789209	0.00059100549	0.00022745834
0.10191398	0.041020967	0.00087010529	0.00022745834
0.10211091	0.037460029	0.00079522008	0.00022746121
0.10230786	0.036380172	0.00076977228	0.00022745834
0.10250479	0.041139241	0.00086891715	0.00022745226
0.10270172	0.038288288	0.00080755859	0.00022745226
0.10289866	0.039635535	0.00084063504	0.00022745226
0.10309559	0.04963899	0.0010490362	0.00022745512
0.10329253	0.035358116	0.00074776623	0.00022745226
0.10348947	0.043946188	0.00092537754	0.00022745834
0.1036864	0.043243244	0.00091169652	0.00022745226
0.10388333	0.032750111	0.00068840891	0.00022745226
0.10408027	0.038236618	0.00080592418	0.00022746121
0.10427721	0.033183858	0.00069771183	0.00022745226
0.10447414	0.041722745	0.00087833719	0.00022745226
0.10467108	0.042335115	0.00088877865	0.00022745226
0.10486801	0.04246759	0.00089245371	0.00022745226
0.10506494	0.04345898	0.00091031683	0.00022745512
0.10526188	0.041870825	0.00087887788	0.00022745226
0.10545882	0.052372426	0.0011026612	0.00022744617
0.10565575	0.042977404	0.0008997746	0.00022745226
0.10585269	0.046625223	0.00097714073	0.00022745226
0.10604962	0.046378091	0.00096947007	0.00022745512
0.10624656	0.044247787	0.00092508149	0.00022744617
0.10644349	0.043248013	0.00090331474	0.00022744617
0.10664043	0.041831791	0.00087277777	0.00022745226
0.10683736	0.052631579	0.0011019809	0.00022744617
0.1070343	0.040492959	0.00084396871	0.00022744904
0.10723124	0.054219503	0.0011286146	0.00022744617
0.10742817	0.047577094	0.00099373981	0.00022744617
0.1076251	0.053362258	0.0011066687	0.00022744617
0.10782204	0.047912087	0.00099968677	0.00022744617
0.10801897	0.056843027	0.0011838069	0.00022744904
0.10821591	0.062144421	0.0012948385	0.00022744617
0.10841285	0.065387972	0.001359918	0.00022744617
0.10860978	0.070099525	0.0014532197	0.00022744009
0.10880671	0.079016678	0.0016503319	0.00022744009
0.10900365	0.061286148	0.0012683567	0.00022744904
0.10920059	0.060959794	0.0012627167	0.00022744009
0.10939752	0.065075919	0.001350496	0.00022744009
0.10959446	0.059611231	0.0012341936	0.00022744009
0.10979139	0.061251085	0.0012720375	0.00022744009
0.10998832	0.062151738	0.0012820937	0.00022744296
0.11018527	0.058214746	0.0012037199	0.00022744009
0.1103822	0.060318828	0.0012469229	0.00022744009
0.11057913	0.055793993	0.0011511834	0.00022743401
0.11077607	0.065834768	0.0013608219	0.00022744009
0.110973	0.073253833	0.0014666726	0.00022743687
0.11116994	0.053014107	0.0010915409	0.00022743401
0.11136688	0.056531049	0.001165224	0.00022743401
0.11156381	0.058273077	0.0011971722	0.00022743401
0.11176074	0.058119658	0.0011965238	0.00022743401
0.11195768	0.055555556	0.0011395428	0.00022744296
0.11215462	0.05429671	0.0011178673	0.00022743401
0.11235155	0.050933786	0.0010448195	0.00022743401
0.11254849	0.054875474	0.0011228025	0.00022743401
0.11274542	0.06519898	0.0013367139	0.00022743401
0.11294235	0.063215956	0.0012971818	0.00022743687
0.11313929	0.069403298	0.0014229864	0.00022743401
0.11333623	0.052454889	0.0010699776	0.00022743401
0.11353316	0.063424945	0.0012994813	0.00022742792
0.1137301	0.067226894	0.0013734523	0.00022743401
0.11392703	0.056485355	0.001150729	0.00022743079
0.11412397	0.061738767	0.0012605629	0.00022742792
0.1143209	0.055485498	0.0011328462	0.00022742792
0.11451784	0.066555046	0.0013565874	0.00022742792
0.11471477	0.068820812	0.0014050021	0.00022742792
0.11491171	0.070008285	0.0014203601	0.00022743079
0.11510865	0.073038399	0.0014875397	0.00022742792
0.11530558	0.074521229	0.001515778	0.00022742792
0.11550251	0.084065244	0.0017142108	0.00022742792
0.11569945	0.071694985	0.0014546678	0.00022742792
0.11589638	0.07323128	0.0014848437	0.00022743079
0.11609332	0.083918974	0.0017017281	0.00022742792
0.11629026	0.083195366	0.0016879212	0.00022742792
0.11648719	0.084745765	0.0017185073	0.00022742184
0.11668412	0.09702725	0.0019674655	0.00022742184
0.11688106	0.10770506	0.0021878495	0.00022742471
0.117078	0.10896382	0.0022046154	0.00022742184
0.11727493	0.11870651	0.0023972695	0.00022742184
0.11747187	0.13303316	0.0026871639	0.00022742184
0.1176688	0.15211152	0.0030755296	0.00022742184
0.11786573	0.16171618	0.0032799849	0.00022742471
0.11806267	0.24091466	0.0048635025	0.00022742184
0.11825961	0.39942646	0.0080792299	0.00022742184
0.11845654	0.67639905	0.01361509	0.00022742184
0.11865348	1.0948311	0.022080293	0.00022742184
0.11885041	1.8377714	0.037187312	0.00022741863
0.11904735	2.9315789	0.05897418	0.00022741576
0.11924428	4.4442635	0.089625344	0.00022741576
0.11944122	6.1072006	0.12281318	0.00022741576
0.11963815	7.9228268	0.15965089	0.00022741576
0.11983509	9.5154676	0.19070475	0.00022741863
0.12003203	10.956785	0.22017084	0.00022741576
0.12022896	11.646485	0.23474588	0.00022741576
0.12042589	11.840891	0.23823254	0.00022741576
0.12062283	11.559118	0.23139873	0.00022741576
0.12081976	10.823505	0.21676159	0.00022741863
0.1210167	10.024	0.20047042	0.00022741576
0.12121364	8.9951534	0.1807633	0.00022740968
0.12141057	7.9628744	0.15908736	0.00022740968
0.1216075	7.0918574	0.14202175	0.00022741576
0.12180444	6.1886945	0.12346014	0.00022741254
0.12200138	5.3224392	0.10623783	0.00022740968
0.12219831	4.53754	0.090656042	0.00022741576
0.12239525	3.7049506	0.073711224	0.00022741576
0.12259218	3.0367558	0.060680345	0.00022740968
0.12278911	2.3676879	0.047215775	0.00022741254
0.12298606	1.75139	0.034891024	0.00022740968
0.12318299	1.2422802	0.024708884	0.00022740968
0.12337992	0.90192235	0.017857688	0.00022740968
0.12357686	0.66005552	0.013140428	0.00022740968
0.12377379	0.50493878	0.010031916	0.00022740646
0.12397073	0.4263719	0.008467	0.00022740968
0.12416767	0.36606443	0.0072504231	0.00022740359
0.1243646	0.34482759	0.0068215141	0.00022740359
0.12456153	0.31309149	0.0062130834	0.00022740359
0.12475847	0.28644201	0.0056659812	0.00022740646
0.12495541	0.27233374	0.0053982656	0.00022739463
0.12515233	0.26153246	0.0051667187	0.00022740323
0.12534928	0.24017127	0.0047343513	0.00022739751
0.12554622	0.23230349	0.0045896927	0.00022739751
0.12574315	0.2269724	0.0044705747	0.00022739751
0.12594008	0.21023837	0.0041518672	0.00022739751
0.12613702	0.19082783	0.0037577986	0.00022740968
0.12633395	0.19103314	0.0037678508	0.00022740968
0.12653089	0.18512781	0.0036392703	0.00022739751
0.12672782	0.16885626	0.0033151305	0.00022739751
0.12692475	0.16082555	0.0031693499	0.00022739751
0.12712169	0.16730475	0.0032694014	0.00022740323
0.12731864	0.15940902	0.0031389464	0.00022739751
0.12751557	0.15505964	0.0030375004	0.00022739751
0.1277125	0.14153846	0.002771674	0.00022739751
0.12790944	0.14561607	0.0028578141	0.00022739751
0.12810637	0.15071127	0.0029509361	0.00022739751
0.1283033	0.14373323	0.0028099969	0.00022739751
0.12850024	0.1345343	0.0026297087	0.00022739751
0.12869717	0.1460803	0.0028526816	0.00022738535
0.12889411	0.1156358	0.0022623872	0.00022739751
0.12909104	0.13046786	0.0025405686	0.00022740323
0.12928799	0.11196319	0.0021884525	0.00022739751
0.12948492	0.12315271	0.0023934364	0.00022739751
0.12968186	0.11616354	0.0022666506	0.00022738535
0.12987879	0.12223915	0.0023812864	0.00022738535
0.13007572	0.11161559	0.0021670593	0.00022738535
0.13027266	0.11187214	0.0021784178	0.00022738535
0.13046959	0.10128496	0.0019650548	0.00022738535
0.13066652	0.11186955	0.0021742599	0.00022738535
0.13086346	0.10094518	0.0019588419	0.00022739751
0.13106039	0.11215304	0.0021681469	0.00022740323
0.13125734	0.10418251	0.0020272264	0.00022738535
0.13145427	0.10255447	0.0019837595	0.00022738535
0.13165121	0.099435031	0.0019258155	0.00022738535
0.13184814	0.090295993	0.0017438129	0.00022738535
0.13204508	0.10090023	0.0019502223	0.00022738535
0.13224201	0.10007553	0.001940634	0.00022738535
0.13243894	0.097533636	0.001881116	0.00022738535
0.13263588	0.089046203	0.0017148817	0.00022738535
0.13283281	0.087883323	0.0016956909	0.00022738535
0.13302974	0.089446105	0.001726327	0.00022739106
0.13322669	0.089925371	0.0017330565	0.00022738535
0.13342363	0.091919944	0.0017659214	0.00022738535
0.13362056	0.090233937	0.0017348703	0.00022738535
0.13381749	0.089824826	0.0017301502	0.00022737318
0.13401443	0.088913694	0.0017110248	0.00022737318
0.13421136	0.090909094	0.0017473304	0.00022738535
0.1344083	0.084745765	0.0016228325	0.00022737318
0.13460523	0.077605322	0.0014878308	0.00022737318
0.13480216	0.078066915	0.0015013319	0.00022737318
0.1349991	0.077777781	0.0014929639	0.0002273789
0.13519605	0.074790224	0.0014249296	0.00022737318
0.13539298	0.074787118	0.0014353228	0.00022737318
0.13558991	0.075824179	0.0014474093	0.00022737318
0.13578685	0.083057702	0.0015885939	0.00022737318
0.13598378	0.083852068	0.0016007519	0.00022737318
0.13618071	0.086892486	0.0016633638	0.00022737318
0.13637765	0.079458073	0.0015164609	0.00022737318
0.13657458	0.073803432	0.0014068169	0.00022737318
0.13677152	0.072521865	0.0013805515	0.00022737318
0.13696845	0.072674416	0.0013814665	0.00022737318
0.13716538	0.08835341	0.0016841624	0.0002273789
0.13736233	0.076838642	0.0014659684	0.00022737318
0.13755926	0.071531795	0.0013559009	0.00022737318
0.1377562	0.064821556	0.0012331953	0.00022737318
0.13795313	0.059506532	0.0011294918	0.00022736102
0.13815007	0.066449985	0.0012591014	0.00022736102
0.138347	0.06816534	0.0012942378	0.00022737318
0.13854393	0.071582735	0.0013536812	0.00022737318
0.13874087	0.079272725	0.001508092	0.00022736102
0.1389378	0.064259931	0.0012169303	0.00022736102
0.13913473	0.069867432	0.0013189198	0.00022736673
0.13933168	0.060747664	0.0011479178	0.00022737318
0.13952862	0.063554756	0.0012005711	0.00022737318
0.13972555	0.060319766	0.0011461559	0.00022736102
0.13992248	0.06735567	0.0012678986	0.00022736102
0.14011942	0.063822158	0.0012044763	0.00022736102
0.14031635	0.062589414	0.0011799948	0.00022737318
0.14051329	0.058865502	0.0011081075	0.00022736102
0.14071022	0.06099749	0.0011517114	0.00022736102
0.14090715	0.066265061	0.0012439955	0.00022736102
0.14110409	0.061763655	0.0011632973	0.00022736673
0.14130104	0.063616872	0.0011988212	0.00022736102
0.14149797	0.064138912	0.0012036964	0.00022736102
0.1416949	0.057112452	0.0010721084	0.00022734885
0.14189184	0.074204944	0.0013913974	0.00022736102
0.14208877	0.069285713	0.0013057427	0.00022736102
0.1422857	0.063452676	0.001191017	0.00022736102
0.14248264	0.06142506	0.0011472928	0.00022736102
0.14267957	0.064184397	0.0012049032	0.00022736102
0.14287651	0.05588752	0.0010443811	0.00022736102
0.14307344	0.059801839	0.0011214078	0.00022735457
0.14327039	0.060787071	0.001135813	0.00022736102
0.14346732	0.055242788	0.0010327442	0.00022734885
0.14366426	0.058266059	0.0010881551	0.00022734885
0.14386119	0.06142506	0.0011473682	0.00022736102
0.14405812	0.054290719	0.0010127072	0.00022734885
0.14425506	0.053017091	0.00098671799	0.00022734885
0.14445199	0.054016136	0.0010081819	0.00022734885
0.14464892	0.058617059	0.0010946159	0.00022734885
0.14484586	0.053875566	0.0010009443	0.00022734885
0.14504279	0.052998606	0.00098641694	0.00022735457
0.14523974	0.056323428	0.0010435914	0.00022734885
0.14543667	0.062083479	0.0011553515	0.00022733668
0.14563361	0.068379037	0.0012675022	0.00022734885
0.14583054	0.059784498	0.0011079892	0.00022734885
0.14602748	0.064337596	0.0011904718	0.00022734885
0.14622441	0.055382486	0.0010270531	0.00022733668
0.14642134	0.052868001	0.00097902946	0.00022734885
0.14661828	0.059228651	0.0010957071	0.00022733668
0.14681521	0.056152511	0.0010418226	0.00022733668
0.14701214	0.060365643	0.0011172584	0.0002273424
0.14720909	0.065794006	0.0012172684	0.00022733668
0.14740603	0.047225095	0.00087299093	0.00022733668
0.14760296	0.050068121	0.0009207321	0.00022733668
0.14779989	0.048570443	0.00089814363	0.00022733668
0.14799683	0.060626939	0.0011219326	0.00022733668
0.14819376	0.059409339	0.0010975982	0.00022733668
0.1483907	0.052036975	0.00095918699	0.00022733668
0.14858763	0.046289992	0.00085063506	0.00022733668
0.14878456	0.049124014	0.0009070941	0.00022733668
0.1489815	0.051186442	0.00093920337	0.0002273424
0.14917845	0.049063031	0.00090223819	0.00022733668
0.14937538	0.053206004	0.0009793333	0.00022733668
0.14957231	0.045377582	0.00083173689	0.00022733668
0.14976925	0.044178084	0.00081412186	0.00022733668
0.14996618	0.0512302	0.00093725062	0.00022733668
0.15016311	0.050508473	0.00092658924	0.00022732452
0.15036005	0.055083305	0.0010121663	0.00022732452
0.15055698	0.04514825	0.00082548521	0.00022733668
0.15075392	0.054384772	0.00099906803	0.00022733668
0.15095085	0.058705132	0.0010646486	0.00022733024
0.1511478	0.053890198	0.00098364463	0.00022732452
0.15134473	0.06493067	0.0011887691	0.00022733668
0.15154167	0.050989602	0.00093069562	0.00022732452
0.1517386	0.058147397	0.0010656193	0.00022732452
0.15193553	0.054588079	0.00099576707	0.00022732452
0.15213247	0.046050422	0.00084093492	0.00022733668
0.1523294	0.043245055	0.00078865589	0.00022732452
0.15252633	0.050316561	0.00091523968	0.00022732452
0.15272327	0.044161927	0.00080464792	0.00022732452
0.1529202	0.041041043	0.00074620172	0.00022733024
0.15311715	0.042588867	0.00077661977	0.00022732452
0.15331408	0.04519774	0.00082079228	0.00022732452
0.15351102	0.044547871	0.000809027	0.00022732452
0.15370795	0.042928454	0.00077944261	0.00022731235
0.15390489	0.042595673	0.0007737939	0.00022732452
0.15410182	0.039364871	0.00071270938	0.00022732452
0.15429875	0.043189369	0.0007842654	0.00022732452
0.15449569	0.040836655	0.00074078212	0.00022731235
0.15469262	0.046657842	0.00084539875	0.00022731235
0.15488955	0.04808959	0.00086967339	0.00022731809
0.1550865	0.050395258	0.0009114978	0.00022732452
0.15528344	0.048707753	0.0008833356	0.00022731235
0.15548037	0.039417025	0.00071407558	0.00022731235
0.1556773	0.041639343	0.00075074314	0.00022731235
0.15587424	0.041515652	0.000750379	0.00022731235
0.15607117	0.050261095	0.00090473733	0.00022731235
0.1562681	0.045169801	0.00081692619	0.00022731235
0.15646504	0.037450723	0.00067544874	0.00022732452
0.15666197	0.036952257	0.00066505419	0.00022731235
0.15685891	0.046093494	0.00082989485	0.00022731809
0.15705585	0.045350734	0.0008157033	0.00022731235
0.15725279	0.034708578	0.00062485738	0.00022731235
0.15744972	0.043888167	0.000788167	0.00022731235
0.15764666	0.037434895	0.00067211239	0.00022731235
0.15784359	0.039344262	0.0007091068	0.00022731235
0.15804052	0.04539559	0.00081393658	0.00022731235
0.15823746	0.048224177	0.00086681289	0.00022731235
0.15843439	0.042498391	0.00075930095	0.00022731235
0.15863132	0.051232167	0.00091828144	0.00022730019
0.15882826	0.041042347	0.00073701941	0.00022731809
0.15902521	0.042016808	0.00075213733	0.00022730019
0.15922214	0.048914805	0.00087698572	0.00022730019
0.15941907	0.039769083	0.00070884032	0.00022731235
0.15961601	0.038847525	0.00069552351	0.00022730019
0.15981294	0.040244687	0.00071868894	0.00022730019
0.16000988	0.047005795	0.0008399997	0.00022730019
0.16020681	0.04863124	0.0008688317	0.00022730019
0.16040374	0.0493748	0.00088064763	0.00022730019
0.16060068	0.044487428	0.00079514663	0.00022730019
0.16079761	0.037320573	0.00066320924	0.00022730592
0.16099456	0.046889953	0.00083379995	0.00022730019
0.16119149	0.03572578	0.000637146	0.00022730019
0.16138843	0.043172371	0.00076849369	0.00022730019
0.16158536	0.038769625	0.00069083262	0.00022730019
0.16178229	0.044804577	0.00079492229	0.00022728802
0.16197923	0.039566051	0.0007032798	0.00022728802
0.16217616	0.041322313	0.00073317031	0.00022728802
0.1623731	0.032473736	0.00057599874	0.00022728802
0.16257003	0.039035227	0.00069216592	0.00022728802
0.16276696	0.043519694	0.00077215297	0.00022730592
0.16296391	0.041296061	0.00073273428	0.00022728802
0.16316085	0.037646316	0.0006659276	0.00022730019
0.16335778	0.039860804	0.00070568919	0.00022728802
0.16355471	0.042231325	0.0007464909	0.00022728802
0.16375165	0.039380245	0.00070405786	0.00022728802
0.16394858	0.040549379	0.00073004613	0.00022728802
0.16414551	0.046686254	0.00083991326	0.00022728802
0.16434245	0.039986782	0.00072322361	0.00022728802
0.16453938	0.033577129	0.00060879614	0.00022728802
0.16473632	0.048446376	0.00088173995	0.00022729376
0.16493326	0.044474393	0.00081254495	0.00022728802
0.1651302	0.050989602	0.00093033043	0.00022727586
0.16532713	0.042065665	0.00077437458	0.00022728802
0.16552407	0.041976981	0.00076863857	0.00022727586
0.165721	0.041016947	0.00075119874	0.00022728802
0.16591793	0.030209405	0.0005561185	0.00022727586
0.16611487	0.045251973	0.00083419139	0.00022727586
0.1663118	0.040972222	0.00075948064	0.00022728802
0.16650873	0.03746992	0.00069105875	0.00022728802
0.16670567	0.04443679	0.00082103547	0.00022728159
0.16690262	0.037860367	0.00070188963	0.00022727586
0.16709955	0.04040404	0.00075031799	0.00022727586
0.16729648	0.044592697	0.00083197257	0.00022727586
0.16749342	0.040738162	0.0007565972	0.00022727586
0.16769035	0.044071354	0.00082026346	0.00022727586
0.16788729	0.046610169	0.00087167893	0.00022727586
0.16808422	0.034422811	0.00063834299	0.00022727586
0.16828115	0.043570671	0.00081636145	0.00022727586
0.16847809	0.044257112	0.00082571816	0.00022726369
0.16867502	0.045128942	0.00085002353	0.00022728159
0.16887197	0.047179852	0.00088470936	0.00022727586
0.1690689	0.032485876	0.00060635648	0.00022726369
0.16926584	0.042288557	0.00079323724	0.00022727586
0.16946277	0.036324788	0.00068165199	0.00022727586
0.1696597	0.031643294	0.00059626176	0.00022726369
0.16985664	0.038475242	0.00072233949	0.00022726369
0.17005357	0.050732404	0.00095475669	0.00022727586
0.17025051	0.04168164	0.00078642648	0.00022726369
0.17044744	0.032986734	0.00062073226	0.00022726369
0.17064437	0.049729731	0.00093987421	0.00022726943
0.17084132	0.042476602	0.0008021036	0.00022727586
0.17103826	0.039344262	0.00074688817	0.00022726369
0.17123519	0.041621424	0.00078773033	0.00022726369
0.17143212	0.041771695	0.00078879925	0.00022726369
0.17162906	0.039811797	0.00075338694	0.00022726369
0.17182599	0.035005413	0.00066096458	0.00022726369
0.17202292	0.035346098	0.00067384931	0.00022726369
0.17221986	0.029764066	0.00056301779	0.00022726369
0.17241679	0.034633614	0.00065724616	0.00022726369
0.17261373	0.029165147	0.00055321353	0.00022725726
0.17281067	0.033491082	0.0006349482	0.00022726369
0.17300761	0.039618488	0.00075497298	0.00022726369
0.17320454	0.034985423	0.00066392514	0.00022725153
0.17340147	0.039143279	0.00074790587	0.00022725153
0.17359841	0.03464799	0.00066079083	0.00022725153
0.17379534	0.038560413	0.00073515828	0.00022726369
0.17399228	0.033736706	0.00064202381	0.00022726369
0.17418921	0.034824047	0.00066267507	0.00022725153
0.17438614	0.035727575	0.0006850902	0.00022725153
0.17458308	0.027654868	0.00052672828	0.00022725726
0.17478003	0.032950759	0.00062984001	0.00022725153
0.17497696	0.036968578	0.00070687023	0.00022725153
0.17517389	0.036370315	0.00069306663	0.00022725153
0.17537083	0.033345822	0.0006412025	0.00022723936
0.17556776	0.033973411	0.00064871577	0.00022723936
0.17576469	0.04247392	0.00081544096	0.00022723936
0.17596163	0.038863976	0.00074731431	0.00022725153
0.17615856	0.038961038	0.00074637256	0.00022725153
0.1763555	0.035355415	0.00067813019	0.00022725153
0.17655243	0.041202672	0.00078980834	0.00022724509
0.17674938	0.027798647	0.00053494051	0.00022723936
0.17694631	0.026621671	0.00051143183	0.00022723936
0.17714325	0.034792367	0.00066890212	0.00022725153
0.17734018	0.033420954	0.00064345339	0.00022723936
0.17753711	0.030122722	0.00057651527	0.00022723936
0.17773405	0.036438767	0.00070220558	0.00022723936
0.17793098	0.039245281	0.00075812818	0.00022723936
0.17812791	0.040525328	0.0007809776	0.00022723936
0.17832485	0.038360287	0.00073967845	0.00022723936
0.17852178	0.033496425	0.00064596476	0.00022724509
0.17871873	0.032842584	0.00063404394	0.00022723936
0.17891566	0.033483822	0.00064543512	0.00022723936
0.1791126	0.038911976	0.00075185101	0.00022722721
0.17930953	0.030955078	0.00059742213	0.00022723936
0.17950647	0.032221381	0.00062315067	0.00022723936
0.1797034	0.034404539	0.00066450989	0.00022723936
0.17990033	0.029045643	0.00056026917	0.00022723936
0.18009727	0.036121674	0.00070021913	0.00022722721
0.1802942	0.029912911	0.0005779193	0.00022722721
0.18049113	0.031764254	0.00061694282	0.00022723294
0.18068808	0.037893143	0.0007335564	0.00022722721
0.18088502	0.040166728	0.000777643	0.00022722721
0.18108195	0.038490854	0.00074693206	0.00022722721
0.18127888	0.034207527	0.00066273159	0.00022722721
0.18147582	0.035496183	0.00068906177	0.00022722721
0.18167275	0.038694993	0.00074938172	0.00022722721
0.18186969	0.03065134	0.0005959447	0.00022722721
0.18206662	0.032592025	0.00063420192	0.00022722721
0.18226355	0.033686601	0.00065122463	0.00022721505
0.18246049	0.034138858	0.00066387455	0.00022723294
0.18265744	0.042764414	0.00083164981	0.00022721505
0.18285437	0.037663337	0.00073386863	0.00022722721
0.1830513	0.038091574	0.00074269727	0.00022722721
0.18324824	0.035047621	0.00067981071	0.00022721505
0.18344517	0.034973096	0.00068138563	0.00022721505
0.1836421	0.032975461	0.00064162805	0.00022721505
0.18383904	0.033846155	0.00065951858	0.00022721505
0.18403597	0.032282859	0.00062885706	0.00022721505
0.18423291	0.035782993	0.0006979212	0.00022721505
0.18442984	0.028671058	0.00056032254	0.00022722078
0.18462679	0.032592025	0.00063411304	0.00022721505
0.18482372	0.03046664	0.0005941391	0.00022721505
0.18502066	0.039200615	0.00076397089	0.00022721505
0.18521759	0.028228926	0.00055108784	0.00022721505
0.18541452	0.034469403	0.00067431713	0.00022721505
0.18561146	0.032780562	0.00063980336	0.00022721505
0.18580839	0.031996917	0.00062410178	0.00022721505
0.18600532	0.032520324	0.00063553534	0.00022720288
0.18620226	0.031431898	0.0006148903	0.00022721505
0.18639919	0.032532919	0.00063544745	0.00022722078
0.18659614	0.036821704	0.00072027108	0.00022720288
0.18679307	0.037441496	0.00073506171	0.00022720288
0.18699001	0.032470044	0.00063433504	0.00022720288
0.18718694	0.035394788	0.00069383293	0.00022720288
0.18738388	0.038402457	0.00074824592	0.00022720288
0.18758081	0.036877207	0.0007261688	0.00022721505
0.18777774	0.03420132	0.00067010347	0.00022720288
0.18797468	0.031152649	0.00061023928	0.00022720288
0.18817161	0.029618083	0.00058053993	0.00022719071
0.18836854	0.035216719	0.00068851869	0.00022720861
0.18856549	0.025570417	0.00050286425	0.00022719071
0.18876243	0.032697547	0.00064101437	0.00022720288
0.18895936	0.031189084	0.000611795	0.00022720288
0.18915629	0.040250096	0.00079119648	0.00022719071
0.18935323	0.033971105	0.00066682894	0.00022719071
0.18955016	0.037269518	0.00073361688	0.00022720288
0.1897471	0.034589972	0.00067751203	0.00022719071
0.18994403	0.02973396	0.00058374542	0.00022720288
0.19014096	0.034265459	0.00067578716	0.00022719071
0.1903379	0.033086803	0.0006481543	0.00022719646
0.19053484	0.043717999	0.00086273911	0.00022719071
0.19073178	0.048286606	0.00094807416	0.00022719071
0.19092871	0.035011802	0.00068994489	0.00022719071
0.19112565	0.04110672	0.00081285997	0.00022719071
0.19132258	0.030787218	0.00060324807	0.00022719071
0.19151951	0.040961009	0.00080808759	0.00022719071
0.19171645	0.03809898	0.0007508258	0.00022719071
0.19191338	0.034659315	0.00068334211	0.00022717856
0.19211031	0.040392157	0.00079501013	0.00022719071
0.19230725	0.027483314	0.00053998921	0.00022719646
0.1925042	0.032949582	0.00065237668	0.00022719071
0.19270113	0.031077892	0.0006122106	0.00022719071
0.19289806	0.029145332	0.0005739656	0.00022719071
0.193095	0.034860946	0.0006849636	0.00022717856
0.19329193	0.027788805	0.00054913276	0.00022719071
0.19348887	0.034018986	0.00067214458	0.00022717856
0.1936858	0.029099489	0.00057250552	0.00022717856
0.19388273	0.030781373	0.00060665834	0.00022717856
0.19407967	0.03085443	0.00060932798	0.00022717856
0.1942766	0.030290952	0.00060022675	0.0002271843
0.19447355	0.031690139	0.00062267715	0.00022717856
0.19467048	0.028141102	0.0005560657	0.00022717856
0.19486742	0.036392406	0.00071948778	0.0002271664
0.19506435	0.027413588	0.00054185663	0.0002271664
0.19526128	0.035899483	0.00071268913	0.0002271664
0.19545822	0.031727381	0.0006235824	0.0002271664
0.19565515	0.032038447	0.00063685811	0.0002271664
0.19585209	0.027777778	0.00054903369	0.0002271664
0.19604902	0.024544735	0.00048399056	0.0002271664
0.19624595	0.033466134	0.00066346524	0.00022717213
0.1964429	0.028762806	0.00056658138	0.00022717856
0.19663984	0.033253204	0.00066112395	0.0002271664
0.19683677	0.030817859	0.00060824479	0.0002271664
0.1970337	0.030750798	0.00061012112	0.0002271664
0.19723064	0.0242352	0.00047892172	0.0002271664
0.19742757	0.032168388	0.00063643395	0.0002271664
0.1976245	0.030509835	0.00060674531	0.00022715423
0.19782144	0.02810768	0.00055485155	0.0002271664
0.19801837	0.028354632	0.00056184077	0.0002271664
0.19821531	0.028719585	0.00056892505	0.00022715998
0.19841225	0.027866242	0.00055165886	0.0002271664
0.19860919	0.025220176	0.00049965829	0.00022715423
0.19880612	0.032104637	0.00063454272	0.00022715423
0.19900306	0.03256936	0.0006476696	0.00022715423
0.19919999	0.030714002	0.00060840027	0.00022715423
0.19939692	0.031872511	0.00063161569	0.00022715423
0.19959386	0.027419355	0.00054604042	0.0002271664
0.19979079	0.027468152	0.00054370763	0.00022715423
0.19998772	0.022845691	0.00045314833	0.00022715423
0.20018466	0.024322169	0.00048110707	0.00022715998
0.20038161	0.026940089	0.00053578411	0.00022715423
0.20057854	0.030412165	0.00060415204	0.00022715423
0.20077547	0.025169795	0.00049918512	0.00022715423
0.20097241	0.029802658	0.00059371477	0.00022715423
0.20116934	0.027555911	0.00054608239	0.00022715423
0.20136628	0.025352113	0.00050423166	0.00022714208
0.20156321	0.023618896	0.00046822784	0.00022715423
0.20176014	0.033051189	0.00065912784	0.00022714208
0.20195708	0.026020817	0.00051621068	0.00022715423
0.20215401	0.030886482	0.00061447948	0.00022715998
0.20235096	0.024969794	0.00049648737	0.00022714208
0.20254789	0.032012805	0.00063629512	0.00022714208
0.20274483	0.025557809	0.00051011983	0.00022714208
0.20294176	0.030012004	0.00059603364	0.00022714208
0.20313869	0.033144705	0.00066192762	0.00022714208
0.20333563	0.027070707	0.00053882942	0.00022714208
0.20353256	0.026682597	0.00052776089	0.00022712992
0.2037295	0.022339562	0.0004454531	0.00022712992
0.20392643	0.026031237	0.0005166452	0.00022714208
0.20412336	0.028003247	0.00055955502	0.00022714782
0.20432031	0.02579605	0.00051355181	0.00022714208
0.20451725	0.021251002	0.00042096962	0.00022714208
0.20471418	0.030463038	0.00060875167	0.00022712992
0.20491111	0.035985604	0.000714719	0.00022714208
0.20510805	0.024786672	0.00049482117	0.00022712992
0.20530498	0.030694669	0.00061237562	0.00022712992
0.20550191	0.018867925	0.00037372514	0.00022712992
0.20569885	0.027346939	0.00054772029	0.00022712992
0.20589578	0.030473135	0.00060575712	0.00022712992
0.20609272	0.029327903	0.0005872139	0.00022713565
0.20628966	0.033857316	0.00067513343	0.00022712992
0.2064866	0.034482758	0.00068980234	0.00022711777
0.20668353	0.0300813	0.00060228503	0.00022712992
0.20688047	0.032634974	0.00065043318	0.00022712992
0.2070774	0.036466774	0.00072919496	0.00022711777
0.20727433	0.032621827	0.00065024127	0.00022711777
0.20747127	0.028513238	0.00057074829	0.00022711777
0.2076682	0.028025996	0.00056047633	0.00022712992
0.20786513	0.034357317	0.00068584859	0.00022712992
0.20806207	0.026465798	0.00052912778	0.0002271235
0.20825902	0.031893421	0.00063605543	0.00022711777
0.20845595	0.032599837	0.00065305078	0.00022711777
0.20865288	0.028686868	0.00057197653	0.00022711777
0.20884982	0.025316456	0.00050672947	0.00022711777
0.20904675	0.035801463	0.0007173075	0.00022711777
0.20924369	0.026774848	0.00053454359	0.0002271056
0.20944062	0.027136492	0.00054128643	0.00022711777
0.20963755	0.023510337	0.00046862767	0.00022711777
0.20983449	0.027549341	0.00055406423	0.00022711777
0.21003142	0.034496754	0.00069041614	0.00022711133
0.21022837	0.032980457	0.0006611991	0.00022711777
0.2104253	0.028524857	0.00057121576	0.00022711777
0.21062224	0.02821443	0.00056203193	0.0002271056
0.21081917	0.029254224	0.00058879325	0.0002271056
0.2110161	0.025910931	0.00051660131	0.0002271056
0.21121304	0.027687296	0.00055369909	0.0002271056
0.21140997	0.030574806	0.00061232684	0.0002271056
0.2116069	0.020016341	0.00040031839	0.0002271056
0.21180384	0.026606631	0.00053374324	0.0002271056
0.21200077	0.038787879	0.00077515538	0.00022711133
0.21219772	0.03292181	0.0006629611	0.00022709343
0.21239465	0.041906327	0.00084475672	0.0002271056
0.21259159	0.02965069	0.00059324736	0.0002271056
0.21278852	0.027346939	0.00054747181	0.0002271056
0.21298546	0.027597403	0.00055136834	0.00022709343
0.21318239	0.025577558	0.0005147265	0.00022709343
0.21337932	0.028814934	0.000575463	0.00022709343
0.21357626	0.025337148	0.00050762005	0.0002271056
0.21377319	0.027651671	0.00055728073	0.0002271056
0.21397012	0.036223035	0.00072606071	0.00022709918
0.21416707	0.024928484	0.00049948459	0.00022709343
0.21436401	0.029351814	0.00058758631	0.00022709343
0.21456094	0.027115859	0.00054466218	0.00022709343
0.21475787	0.032019705	0.00064417528	0.00022708128
0.21495481	0.036779732	0.00073888048	0.00022709343
0.21515174	0.028676772	0.00057602453	0.00022709343
0.21534868	0.021694638	0.00043422225	0.00022708128
0.21554561	0.037875667	0.00076301163	0.00022709343
0.21574254	0.040032681	0.00080386683	0.00022708128
0.21593948	0.037037037	0.00074674212	0.00022709918
0.21613643	0.029967159	0.00060288655	0.00022708128
0.21633336	0.035670355	0.00071768131	0.00022708128
0.21653029	0.036565326	0.0007367545	0.00022708128
0.21672723	0.028967768	0.00058039936	0.00022709343
0.21692416	0.031752579	0.00063985208	0.00022708128
0.21712109	0.027104722	0.00054445391	0.00022708128
0.21731803	0.020123204	0.00040335717	0.00022708128
0.21751496	0.026759984	0.00053823536	0.00022708128
0.2177119	0.026069246	0.00052186236	0.00022708128
0.21790883	0.026589114	0.00053635001	0.00022708702
0.21810578	0.026552288	0.00053185219	0.00022708128
0.21830271	0.042975206	0.00086867152	0.00022708128
0.21849965	0.027572017	0.00055462279	0.00022706912
0.21869658	0.02618658	0.00052525953	0.00022708128
0.21889351	0.032752901	0.00066215801	0.00022706912
0.21909045	0.029086441	0.00058420555	0.00022706912
0.21928738	0.026413538	0.00053210388	0.00022706912
0.21948431	0.026815182	0.00053951127	0.00022706912
0.21968125	0.031237155	0.00062813103	0.00022706912
0.21987818	0.028477095	0.0005727153	0.00022707487
0.22007513	0.027425297	0.00054995163	0.00022706912
0.22027206	0.02571547	0.00051903329	0.00022706912
0.220469	0.023399014	0.00046956545	0.00022706912
0.22066593	0.020281456	0.00040847281	0.00022705697
0.22086287	0.026348291	0.00053039653	0.00022705697
0.2210598	0.02513391	0.00050511834	0.00022705697
0.22125673	0.021928011	0.00044140907	0.00022705697
0.22145367	0.028512396	0.00057537784	0.00022705697
0.2216506	0.030991735	0.00062512193	0.00022706912
0.22184753	0.023868313	0.00047937297	0.00022707487
0.22204448	0.030705394	0.00062020659	0.00022705697
0.22224142	0.023514852	0.00047261143	0.00022705697
0.22243835	0.023505155	0.00047231911	0.00022705697
0.22263528	0.019900497	0.00040033378	0.00022705697
0.22283222	0.024259869	0.00048756212	0.00022704482
0.22302915	0.029142382	0.00058950018	0.00022705697
0.22322609	0.02850062	0.00057391683	0.00022704482
0.22342302	0.027538018	0.00055322063	0.00022704482
0.22361995	0.026982151	0.000544296	0.00022705697
0.22381689	0.02353427	0.00047364327	0.0002270627
0.22401384	0.023799583	0.00048182748	0.00022704482
0.22421077	0.02345679	0.00047130589	0.00022704482
0.2244077	0.0252588	0.00050930696	0.00022704482
0.22460464	0.027049521	0.00054712733	0.00022704482
0.22480157	0.023408623	0.00047000224	0.00022704482
0.2249985	0.023060797	0.00046735944	0.00022704482
0.22519544	0.021311475	0.00042687351	0.00022704482
0.22539237	0.026611228	0.0005379559	0.00022704482
0.22558931	0.023839397	0.00048273412	0.00022704482
0.22578624	0.026563138	0.00053269125	0.00022703838
0.22598319	0.030403998	0.00061529723	0.00022703265
0.22618012	0.027697396	0.00055803085	0.00022704482
0.22637706	0.028045207	0.0005688346	0.00022704482
0.22657399	0.026523	0.00053554843	0.00022703265
0.22677092	0.020729685	0.00041742137	0.00022703265
0.22696786	0.031094527	0.00062868878	0.00022703265
0.22716479	0.024430642	0.00049214315	0.00022704482
0.22736172	0.027603513	0.00056033803	0.00022703265
0.22755866	0.026859503	0.00054137153	0.00022703265
0.22775559	0.027162557	0.00055042829	0.00022703265
0.22795253	0.030265341	0.00061132561	0.00022703838
0.22814947	0.02616279	0.00052834174	0.00022703265
0.22834641	0.024461029	0.00049320632	0.00022703265
0.22854334	0.03115912	0.00063019386	0.0002270205
0.22874027	0.026902059	0.00054720766	0.00022703265
0.22893721	0.029302517	0.00059072848	0.00022703265
0.22913414	0.024542429	0.0004956706	0.0002270205
0.22933108	0.02616279	0.00052793475	0.0002270205
0.22952801	0.027511463	0.00055714714	0.0002270205
0.22972494	0.032902956	0.00066660589	0.0002270205
0.22992188	0.019900497	0.00040051184	0.00022703838
0.23011883	0.027895182	0.00056831422	0.0002270205
0.23031576	0.021882741	0.0004395624	0.0002270205
0.23051269	0.021639617	0.00043693688	0.0002270205
0.23070963	0.026666667	0.00053910143	0.0002270205
0.23090656	0.030265341	0.00061097567	0.00022700834
0.23110349	0.02978188	0.00060504128	0.00022700834
0.23130043	0.021276595	0.00043004882	0.0002270205
0.23149736	0.020382695	0.00041101026	0.0002270205
0.2316943	0.032999165	0.00066985877	0.0002270205
0.23189123	0.0290577	0.00058729795	0.00022701408
0.23208818	0.031014251	0.00062993995	0.00022700834
0.23228511	0.020815987	0.00041934315	0.00022700834
0.23248205	0.023819473	0.00048167453	0.00022700834
0.23267898	0.035609551	0.00072287605	0.00022700834
0.23287591	0.026184538	0.00052900077	0.00022700834
0.23307285	0.022166457	0.00044846634	0.00022700834
0.23326978	0.024603836	0.00049767818	0.00022700834
0.23346671	0.025041737	0.00050640915	0.00022700834
0.23366365	0.025651809	0.0005205273	0.00022700834
0.23386058	0.025876461	0.00052349904	0.00022701408
0.23405753	0.030140379	0.00060707919	0.00022699618
0.23425446	0.027345393	0.00055532571	0.00022700834
0.2344514	0.023070469	0.00046812699	0.00022699618
0.23464833	0.02131216	0.00043129697	0.00022699618
0.23484527	0.026337793	0.0005337894	0.00022700834
0.2350422	0.032608695	0.00066214369	0.00022700834
0.23523913	0.030659387	0.00062306714	0.00022699618
0.23543607	0.026228143	0.00053073111	0.00022699618
0.235633	0.025083613	0.00050839956	0.00022699618
0.23582993	0.035609551	0.00072409608	0.00022700192
0.23602688	0.02063158	0.00041856224	0.00022698403
0.23622382	0.022092538	0.00044638696	0.00022699618
0.23642075	0.021285476	0.00042997993	0.00022699618
0.23661768	0.025565801	0.00051847979	0.00022698403
0.23681462	0.025252525	0.00051339896	0.00022698403
0.23701155	0.025491016	0.00051549845	0.00022699618
0.23720849	0.024644945	0.00049892615	0.00022698403
0.23740542	0.026028547	0.00052868202	0.00022699618
0.23760235	0.027672956	0.00056179822	0.00022698403
0.23779929	0.03191936	0.000649394	0.00022698977
0.23799624	0.026293823	0.00053258962	0.00022698403
0.23819317	0.026481714	0.00053817133	0.00022698403
0.2383901	0.021830395	0.00044222668	0.00022698403
0.23858704	0.024298282	0.00049238629	0.00022698403
0.23878397	0.020117352	0.00040743875	0.00022698403
0.2389809	0.031879194	0.00064839621	0.00022697187
0.23917784	0.024800336	0.00050380046	0.00022697187
0.23937477	0.02864364	0.00058263738	0.00022698403
0.23957171	0.024288107	0.00049252465	0.00022697187
0.23976864	0.024186822	0.00048929837	0.00022697762
0.23996559	0.026947368	0.00054790976	0.00022697187
0.24016252	0.022419628	0.00045617245	0.00022697187
0.24035946	0.020877717	0.00042607583	0.00022697187
0.24055639	0.025781911	0.00052506872	0.00022697187
0.24075332	0.025553662	0.00052231527	0.00022697187
0.24095026	0.026169026	0.00053708762	0.00022697187
0.24114719	0.025106383	0.0005127053	0.00022697187
0.24134412	0.022269808	0.00045547512	0.00022697187
0.24154106	0.02631579	0.00054101925	0.00022697187
0.24173799	0.022011222	0.0004519824	0.00022696547
0.24193494	0.018663194	0.00038285961	0.00022697187
0.24213187	0.024956971	0.00051239051	0.00022695972
0.24232881	0.024923481	0.00051603868	0.00022697187
0.24252574	0.019676432	0.00040632102	0.00022695972
0.24272268	0.027510917	0.00057014491	0.00022695972
0.24291961	0.017173052	0.00035579025	0.00022695972
0.24311654	0.020452568	0.00042198435	0.00022695972
0.24331348	0.022212351	0.00046205483	0.00022695972
0.24351041	0.021164021	0.00043887019	0.00022695972
0.24370734	0.02024648	0.00041980564	0.00022696547
0.24390429	0.022686834	0.00047332636	0.00022695972
0.24410123	0.016100179	0.00033526195	0.00022695972
0.24429816	0.018650088	0.00038770598	0.00022694757
0.24449509	0.029237095	0.00061829318	0.00022694757
0.24469203	0.041013826	0.00087333168	0.00022695972
0.24488896	0.035613872	0.00076293596	0.00022694757
0.2450859	0.026328161	0.00056422647	0.00022694757
0.24528283	0.020823473	0.00044674877	0.00022694757
0.24547976	0.022889843	0.00049429946	0.00022694757
0.2456767	0.023099134	0.00050065015	0.0002269533
0.24587364	0.02020202	0.00043684579	0.00022694757
0.24607058	0.021855269	0.00047613939	0.0002269354
0.24626751	0.021802325	0.00047441002	0.00022694757
0.24646445	0.018217627	0.00039793656	0.00022694757
0.24666138	0.018673219	0.00040826641	0.00022694757
0.24685831	0.022200296	0.00048696765	0.0002269354
0.24705525	0.023348236	0.00051424094	0.0002269354
0.24725218	0.020469297	0.0004504855	0.0002269354
0.24744911	0.019607844	0.00043350513	0.00022694757
0.24764605	0.021989005	0.00048478338	0.00022694115
0.247843	0.023162136	0.00051344663	0.0002269354
0.24803993	0.025051124	0.00056004355	0.0002269354
0.24823686	0.023065094	0.00051544094	0.0002269354
0.2484338	0.017820774	0.00039576803	0.00022692325
0.24863073	0.024176955	0.00054161443	0.0002269354
0.24882767	0.022633744	0.00050599506	0.00022692325
0.2490246	0.019141231	0.00042890746	0.00022692325
0.24922153	0.024033438	0.00054243155	0.00022692325
0.24941847	0.01920083	0.00043091259	0.00022692325
0.2496154	0.021085925	0.00047754939	0.000226929
0.24981235	0.021119324	0.00047837693	0.00022692965
0.25000927	0.019843342	0.00044692459	0.00022692325
0.2502062	0.020266667	0.0004616337	0.0002269354
0.25040314	0.017478814	0.00039585156	0.0002269111
0.25060007	0.018929152	0.00043399585	0.0002269226
0.25079703	0.02190171	0.00049859862	0.0002269111
0.25099397	0.027404621	0.00062867528	0.0002269111
0.2511909	0.018990776	0.00043575067	0.0002269111
0.25138783	0.025848143	0.00059185718	0.0002269111
0.25158477	0.021798365	0.00050163723	0.0002269111
0.2517817	0.023471616	0.0005406093	0.0002269111
0.25197864	0.024657534	0.00056974188	0.0002269111
0.25217557	0.022160664	0.00051419757	0.0002269111
0.2523725	0.020856202	0.00048192582	0.0002269111
0.25256944	0.022234574	0.00051710504	0.0002269111
0.25276637	0.026651859	0.00062078511	0.0002269111
0.2529633	0.027917365	0.00065162056	0.0002268868
0.25316024	0.015202703	0.00035309012	0.0002269111
0.25335717	0.025582718	0.00060211326	0.0002269111
0.25355411	0.0152314	0.0003610476	0.0002269111
0.25375104	0.022262335	0.00053840608	0.0002269111
0.25394797	0.024758454	0.00060112192	0.0002268868
0.25414491	0.022113021	0.00053926295	0.0002269111
0.25434184	0.018975332	0.00046773133	0.0002269111
0.25453877	0.021484375	0.00053947943	0.0002269226
0.25473574	0.022834117	0.00058213639	0.0002268868
0.25493267	0.021798365	0.00055959838	0.0002269111
0.25512961	0.025730181	0.00066801236	0.0002269111
0.25532654	0.030518098	0.00080335216	0.0002269111
0.25552347	0.034959942	0.00093311805	0.0002268868
0.25572041	0.021969697	0.0005929381	0.0002269111
0.25591734	0.025121557	0.00070151873	0.0002269111
0.25611427	0.038693037	0.0011207036	0.0002268868
0.25631121	0.034703195	0.0010345721	0.0002268868
0.25650814	0.020735156	0.0006222325	0.0002268868
0.25670508	0.016456923	0.00049515563	0.0002268868
0.25690201	0.019027485	0.00059955602	0.0002268868
0.25709894	0.017957352	0.00058281794	0.0002268868
0.25729588	0.027154664	0.00090582867	0.0002268868
0.25749281	0.019184653	0.0006355056	0.0002268868
0.25768974	0.023899371	0.00082069344	0.0002268868
0.25788668	0.027166883	0.00094276574	0.0002268868
0.25808361	0.030707611	0.0010893866	0.0002268868
0.25828055	0.021887826	0.00078438059	0.0002268868
0.25847748	0.034334764	0.0012629745	0.00022689829
0.25867444	0.027656477	0.0010247565	0.00022686248
0.25887138	0.042813454	0.0016452299	0.00022686248
0.25906831	0.024691358	0.00093989313	0.00022686248
0.25926524	0.02852615	0.0011044883	0.0002268868
0.25946218	0.033444814	0.0013235717	0.00022686248
0.25965911	0.030560272	0.0012207672	0.0002268868
0.25985605	0.036395147	0.0014763901	0.0002268868
0.26005298	0.032986112	0.0013389263	0.00022686248
0.26024991	0.022727273	0.00090200239	0.00022686248
0.26044685	0.019642858	0.00079214084	0.0002268868
0.26064378	0.019607844	0.00077552546	0.00022686248
0.26084071	0.023381295	0.00094741239	0.00022686248
0.26103765	0.023941068	0.00098165951	0.00022686248
0.26123458	0.035185184	0.0014621149	0.00022686248
0.26143152	0.026415095	0.0011006078	0.0002268868
0.26162845	0.018484289	0.00075461791	0.00022686248
0.26182538	0.015296367	0.00062626344	0.00022686248
0.26202232	0.023483366	0.00098801986	0.00022686248
0.26221925	0.017857144	0.00075067463	0.00022686248
0.26241618	0.026768642	0.0011227919	0.00022684968
0.26261315	0.027777778	0.0011934965	0.00022683818
0.26281008	0.028455285	0.0012374562	0.00022686248
0.26300701	0.02258727	0.00097689801	0.00022686248
0.26320395	0.032193158	0.0013937704	0.00022683818
0.26340088	0.044397462	0.0019895553	0.00022686248
0.26359782	0.037656903	0.0016756126	0.00022683818
0.26379475	0.025641026	0.0011360113	0.00022686248
0.26399168	0.014957265	0.00064079679	0.00022683818
0.26418862	0.010869565	0.0004537857	0.00022683818
0.26438555	0.013422819	0.00058021059	0.00022683818
0.26458248	0.016018307	0.00071023154	0.00022683818
0.26477942	0.011210762	0.00047533537	0.00022683818
0.26497635	0.016317016	0.00073020614	0.00022686248
0.26517329	0.030303031	0.0014072885	0.00022683818
0.26537022	0.036674816	0.0017541078	0.00022683818
0.26556715	0.028846154	0.001345409	0.00022683818
0.26576409	0.03960396	0.0019021929	0.00022683818
0.26596102	0.030303031	0.0014597996	0.00022683818
0.26615795	0.020725388	0.0009702401	0.00022683818
0.26635489	0.0076726344	0.00031722439	0.00022684968
0.26655185	0.018567638	0.00088652171	0.00022681388
0.26674879	0.030136986	0.0015060966	0.00022683818
0.26694572	0.021621622	0.0010528805	0.00022683818
0.26714265	0.016438356	0.00078653323	0.00022681388
0.26733959	0.016949153	0.00082351215	0.00022681388
0.26753652	0.011428571	0.00052979746	0.00022681388
0.26773345	0.0060422961	0.00023519606	0.00022683818
0.26793039	0.011940299	0.00056581257	0.00022683818
0.26812732	0.01775148	0.00088273216	0.00022683818
0.26832426	0.028124999	0.0014846392	0.00022683818
0.26852119	0.028571429	0.0015201655	0.00022683818
0.26871812	0.025723472	0.0013666357	0.00022683818
0.26891506	0.038585208	0.0020981946	0.00022681388
0.26911199	0.04040404	0.0022484574	0.00022683818
0.26930892	0.040268455	0.0022029798	0.00022683818
0.26950586	0.034602076	0.0019343148	0.00022683818
0.26970279	0.051546391	0.0029242712	0.00022681388
0.26989973	0.025362318	0.0014159542	0.00022681388
0.27009666	0.011235955	0.00056250131	0.00022681388
0.27029359	0.022900764	0.0012940144	0.00022684968
0.27049056	0.029304029	0.0016620607	0.00022681388
0.27068749	0.027237354	0.0015760555	0.00022681388
0.27088442	0.036144577	0.0021639194	0.00022681388
0.27108136	0.025104603	0.0014855055	0.00022681388
0.27127829	0.012605042	0.00066853553	0.00022681388
0.27147523	0.0070921984	0	0.00022681388
0.27167216	0	0	0.00022681388
0.27186909	0	0	0.00022681388
0.27206603	0	0	0.00022681388
0.27226296	0	0	0.00022681388
