#   DataFileName=PAL30_105C_WAXS_08172017.tif
#   DataFileType=.tif
#   
#   DataFilePath=E:DATA:PAL30_08262017:
#   
#   Processed on=Wed, Jan 16, 2019,2:42:21 AM
#   Units=Arbitrary
#   SampleThickness=1
#   SampleTransmission=1
#   CorrectionFactor=1
#   SampleMeasurementTime=1
#   EmptyMeasurementTime=1
#   BackgroundMeasTime=1
#   SampleI0=1
#   EmptyI0=1
#   Nika_SampleToDetectorDistacne=1552.1
#   Nika_Wavelength=1.54
#   Nika_XrayEnergy=8.0509
#   Nika_PixelSizeX=0.075
#   Nika_PixelSizeY=0.075
#   Nika_HorizontalTilt=0
#   Nika_VerticalTilt=0
#   Nika_BeamCenterX=1540.3
#   Nika_BeamCenterY=830.17
#   Nika_BeamSizeX=0
#   Nika_BeamCenterY=830.17
#   CalibrationFormula=1*((Sa2D))
#   CurrentMaskFileName=PAL30_30C_WAXS_mask.hdf
#   QvectorMaxNumPnts=1
#   QvectorNumberPoints=1383
#   CircularAverage=1
#   PolarizationCorrection=None
#   UncertainityCalculationMethod=OldNikaMethod

0.0060065244	4.5	3	0.00022756745
0.00620346	3.3599999	0.6669333	0.00022756765
0.0064003952	2.7543859	0.36308646	0.00022756765
0.0065973303	3.5625	0.39720145	0.00022756765
0.0067942655	4.9489794	0.49614546	0.00022756765
0.0069912006	6.1308413	0.58261597	0.00022756745
0.0071881362	7.2786884	0.64592904	0.00022756727
0.0073850714	8.6870232	0.74095541	0.00022756727
0.0075820065	8.5379314	0.69340271	0.00022756727
0.0077789417	8.2040815	0.66449225	0.00022756745
0.0079758773	7.5822783	0.59222746	0.00022756746
0.0081728119	6.5766873	0.5061096	0.00022756707
0.0083697475	5.803371	0.427827	0.00022756671
0.0085666822	4.9481864	0.35066643	0.00022756783
0.0087636178	4.6461539	0.32757258	0.00022756783
0.0089605534	3.9952607	0.27102327	0.00022756746
0.0091574881	3.6462882	0.23759823	0.00022756707
0.0093544237	3.1800001	0.19844472	0.00022756671
0.0095513584	2.8669202	0.17497529	0.00022756707
0.009748294	2.5992646	0.1559049	0.00022756707
0.0099452296	2.465704	0.14648511	0.00022756595
0.010142164	2.2589929	0.13416128	0.00022756707
0.0103391	1.93266	0.11100904	0.00022756671
0.010536035	1.7932203	0.10317308	0.00022756707
0.01073297	1.8092105	0.10288869	0.00022756783
0.010929906	1.5948553	0.089634903	0.00022756746
0.01112684	1.6485623	0.092184484	0.00022756783
0.011323776	1.370482	0.074566178	0.00022756746
0.011520711	1.0914634	0.059667952	0.00022756707
0.011717646	1.1745563	0.063345492	0.00022756707
0.011914582	1.0877193	0.058314234	0.00022756746
0.012111517	0.93333334	0.049689472	0.00022756783
0.012308452	0.91758239	0.047673739	0.00022756671
0.012505387	0.88135594	0.046512038	0.00022756783
0.012702323	0.91534394	0.046747562	0.00022756783
0.012899258	0.85790884	0.04409878	0.00022756671
0.013096193	0.77225131	0.039202604	0.00022756707
0.013293128	0.685422	0.034324303	0.00022756671
0.013490063	0.70876288	0.035676323	0.00022756707
0.013686999	0.59803921	0.029331865	0.00022756707
0.013883934	0.6545012	0.032089263	0.00022756671
0.014080869	0.57416266	0.027846603	0.00022756707
0.014277805	0.62117648	0.029912716	0.00022756671
0.014474739	0.57446808	0.027734745	0.0002275663
0.014671675	0.55304742	0.026110696	0.00022756707
0.014868611	0.53181821	0.025214866	0.00022756671
0.015065545	0.51648355	0.024045205	0.0002275663
0.015262481	0.40772533	0.01877008	0.00022756671
0.015459416	0.45054945	0.020967728	0.00022756595
0.01565635	0.41791046	0.019170012	0.00022756707
0.015853286	0.44373673	0.020285189	0.00022756554
0.016050221	0.36907217	0.016649609	0.00022756707
0.016247157	0.37044534	0.016549211	0.00022756707
0.016444093	0.36199999	0.016069986	0.00022756483
0.016641026	0.32128513	0.014298007	0.00022756707
0.016837962	0.3246493	0.014423737	0.00022756707
0.017034898	0.29961088	0.013141405	0.00022756554
0.017231833	0.25239006	0.010953219	0.00022756554
0.017428769	0.29032257	0.012566129	0.00022756483
0.017625703	0.27663553	0.011903776	0.00022756554
0.017822638	0.25884545	0.011094156	0.00022756554
0.018019574	0.22977941	0.0097939726	0.00022756554
0.018216509	0.26824817	0.011375397	0.00022756554
0.018413445	0.24865831	0.010472743	0.00022756483
0.018610379	0.23144877	0.0096639367	0.00022756554
0.018807314	0.2303665	0.0095749982	0.00022756554
0.01900425	0.21663778	0.0089596016	0.00022756554
0.019201186	0.23951049	0.0099709984	0.00022756554
0.019398121	0.19597989	0.0079702679	0.00022756483
0.019595055	0.22033899	0.009025028	0.00022756554
0.019791991	0.21818182	0.0088240318	0.00022756554
0.019988926	0.20661157	0.0083634807	0.00022756554
0.020185862	0.15849674	0.0063624918	0.00022756554
0.020382797	0.20222931	0.0080282986	0.00022756483
0.020579731	0.23786408	0.009526507	0.00022756403
0.020776667	0.18025078	0.0070807831	0.00022756403
0.020973602	0.22378717	0.0088170394	0.00022756554
0.021170538	0.18125001	0.0071188011	0.00022756403
0.021367474	0.15233786	0.0058826394	0.0002275633
0.021564407	0.15479876	0.0060486943	0.00022756403
0.021761343	0.15097161	0.0058047916	0.00022756403
0.021958278	0.15384616	0.0059372978	0.00022756403
0.022155214	0.17621145	0.006714562	0.00022756403
0.02235215	0.12936047	0.004894428	0.0002275633
0.022549083	0.17180617	0.006553479	0.00022756403
0.022746019	0.1574468	0.0058946176	0.00022756403
0.022942955	0.17073171	0.0064383512	0.00022756403
0.02313989	0.13719943	0.0051341248	0.00022756403
0.023336826	0.13389121	0.0049672392	0.0002275633
0.02353376	0.1209564	0.0045018173	0.00022756403
0.023730695	0.11397558	0.004173717	0.00022756403
0.023927631	0.13655172	0.0050419178	0.0002275625
0.024124566	0.1300268	0.004735121	0.00022756403
0.024321502	0.10857909	0.0039491253	0.00022756179
0.024518436	0.13154362	0.0047929049	0.0002275625
0.024715371	0.13570487	0.0049008336	0.0002275625
0.024912307	0.097754292	0.0035226773	0.0002275625
0.025109243	0.11253197	0.0040016733	0.0002275625
0.025306178	0.12677878	0.0045333165	0.00022756179
0.025503112	0.11621967	0.0041250265	0.0002275625
0.025700048	0.11562897	0.0040956107	0.0002275625
0.025896983	0.10687023	0.0037856025	0.0002275625
0.026093919	0.1046798	0.0036500222	0.00022756097
0.026290854	0.090570718	0.0031648255	0.00022756179
0.026487788	0.10121951	0.0035129413	0.0002275625
0.026684724	0.10880195	0.0037836032	0.00022756097
0.026881659	0.10718635	0.0037178907	0.0002275625
0.027078595	0.088305488	0.0030276596	0.00022756097
0.027275531	0.096269555	0.0033195636	0.00022756179
0.027472464	0.09313155	0.0031585246	0.00022756097
0.0276694	0.10874704	0.003714843	0.00022756097
0.027866336	0.10208817	0.0034557143	0.00022756097
0.028063271	0.10232558	0.0034691424	0.00022756097
0.028260207	0.09324009	0.0031605414	0.00022756026
0.028457141	0.08866442	0.0029483715	0.00022756097
0.028654076	0.09307605	0.0031151143	0.00022756097
0.028851012	0.10626398	0.0035332602	0.00022756097
0.029047947	0.1075028	0.0035779143	0.00022756097
0.029244883	0.098987624	0.0033015849	0.00022756026
0.029441817	0.09259259	0.003037934	0.00022756097
0.029638752	0.091208793	0.0030029465	0.00022755946
0.029835688	0.0819849	0.0026754679	0.00022756097
0.030032624	0.080645159	0.0026272363	0.00022755946
0.030229559	0.0995671	0.0032559251	0.00022755875
0.030426493	0.078723401	0.0025506788	0.00022755946
0.030623429	0.088391908	0.0028673946	0.00022755946
0.030820364	0.10113519	0.0032298958	0.00022755946
0.0310173	0.069400631	0.0022340096	0.00022755946
0.031214235	0.072614111	0.0023227017	0.00022755946
0.031411171	0.081108831	0.0025812031	0.00022755875
0.031608105	0.086866595	0.0027766065	0.00022755571
0.031805038	0.075834177	0.0023951728	0.00022756017
0.032001976	0.10212336	0.0032296504	0.00022755875
0.03219891	0.091457285	0.0028834569	0.00022756017
0.032395847	0.08991009	0.0028256015	0.00022755875
0.032592781	0.080436945	0.0025187831	0.00022755875
0.032789715	0.089041099	0.002770589	0.00022756017
0.032986652	0.08374384	0.0026136197	0.00022755571
0.033183586	0.075949363	0.0023546778	0.00022755713
0.033380523	0.11657033	0.0036026926	0.00022755875
0.033577457	0.082851641	0.0025567818	0.00022755571
0.033774391	0.081982844	0.0025159691	0.00022755713
0.033971328	0.066793896	0.0020477597	0.00022755571
0.034168262	0.077578053	0.0023705538	0.00022756017
0.0343652	0.085768141	0.0026188733	0.00022755571
0.034562133	0.067780875	0.0020517441	0.00022755571
0.034759067	0.079777367	0.0024164214	0.00022756017
0.034956004	0.053703703	0.0016202631	0.00022755571
0.035152938	0.086757988	0.0026077121	0.00022755713
0.035349876	0.074817516	0.0022464721	0.00022755571
0.035546809	0.065335751	0.0019541827	0.00022755571
0.035743743	0.060688406	0.0018132359	0.00022755713
0.035940681	0.074439459	0.0022161587	0.00022755571
0.036137614	0.061278865	0.0018129222	0.00022755713
0.036334552	0.068383656	0.0020241397	0.00022755266
0.036531486	0.07760141	0.0022914095	0.00022755266
0.036728419	0.066137567	0.0019513726	0.00022755713
0.036925357	0.059999999	0.0017568253	0.00022755571
0.037122291	0.059947871	0.0017545356	0.00022755713
0.037319228	0.061525129	0.0017987479	0.00022755571
0.037516162	0.073791347	0.002136437	0.00022755266
0.037713096	0.071122535	0.0020684388	0.00022755713
0.037910033	0.064735949	0.001877345	0.00022755266
0.038106967	0.072094999	0.0020863991	0.00022755409
0.038303904	0.059915613	0.0017279122	0.00022755266
0.038500838	0.069051579	0.0019798959	0.00022755266
0.038697772	0.067768596	0.0019365116	0.00022755409
0.038894709	0.062086094	0.0017747928	0.00022755266
0.039091643	0.056244832	0.0016056148	0.00022755409
0.03928858	0.062295083	0.0017715241	0.00022755266
0.039485514	0.066612512	0.0018871569	0.00022755266
0.039682448	0.058489032	0.0016560934	0.00022755409
0.039879385	0.057028111	0.0016051339	0.00022755266
0.040076319	0.051199999	0.0014373716	0.00022755409
0.040273257	0.061797753	0.0017394061	0.00022754962
0.04047019	0.071599044	0.0020085271	0.00022754962
0.040667124	0.063542493	0.0017800153	0.00022755409
0.040864062	0.0578577	0.0016059757	0.00022755266
0.041060995	0.059097979	0.0016377398	0.00022755409
0.041257933	0.054602183	0.0015140182	0.00022754962
0.041454867	0.053696498	0.0014869904	0.00022755266
0.0416518	0.064591438	0.0017906261	0.00022755409
0.041848738	0.070992365	0.0019513875	0.00022754962
0.042045671	0.065399237	0.001793149	0.00022754801
0.042242609	0.064638786	0.0017721644	0.00022754657
0.042439543	0.066818528	0.0018311777	0.00022754353
0.042636476	0.055597294	0.0015133246	0.00022754801
0.042833414	0.058734939	0.0016003863	0.00022754657
0.043030348	0.050784167	0.0013768974	0.00022754801
0.043227285	0.065731168	0.0017766969	0.00022754353
0.043424219	0.062638171	0.00169051	0.00022754353
0.043621153	0.050735295	0.0013650854	0.00022754801
0.04381809	0.060850441	0.001637541	0.00022754353
0.044015024	0.048280906	0.0012957829	0.00022754495
0.044211961	0.046376813	0.0012390792	0.00022754353
0.044408895	0.055395685	0.0014761747	0.00022754353
0.044605829	0.068965517	0.0018390745	0.00022754495
0.044802766	0.065279767	0.0017389918	0.00022754353
0.0449997	0.064953603	0.001725761	0.00022754495
0.045196638	0.056537103	0.0014938558	0.00022754353
0.045393571	0.060283687	0.0015960733	0.00022754353
0.045590505	0.053258583	0.0014005585	0.00022754495
0.045787442	0.077138849	0.0020338092	0.00022754048
0.045984376	0.058333334	0.0015279137	0.00022754191
0.046181314	0.052741151	0.0013806773	0.00022754353
0.046378247	0.055939227	0.0014605499	0.00022754048
0.046575181	0.04903315	0.001279898	0.00022754191
0.046772119	0.056888279	0.0014804176	0.00022754353
0.046969052	0.054458816	0.0014117814	0.00022754495
0.04716599	0.051806409	0.0013434194	0.00022754048
0.047362924	0.053908356	0.0013902056	0.00022754048
0.047559857	0.056970511	0.0014652619	0.00022754495
0.047756795	0.060443252	0.0015570213	0.00022754048
0.047953729	0.054325957	0.001397811	0.00022754495
0.048150666	0.067020573	0.0017163994	0.00022754048
0.0483476	0.050431322	0.0012880091	0.00022754048
0.048544534	0.063523248	0.0016145967	0.00022754191
0.048741471	0.048780486	0.0012422738	0.00022753744
0.048938405	0.037133552	0.00093827257	0.00022754191
0.049135342	0.055045873	0.0013993549	0.00022754048
0.049332276	0.069993518	0.0017712523	0.00022753744
0.04952921	0.051746443	0.0013057458	0.00022753887
0.049726147	0.058027077	0.001463664	0.00022753744
0.049923081	0.06016466	0.0015042089	0.00022754191
0.050120018	0.043478262	0.0010897119	0.00022753744
0.050316952	0.051823415	0.0013011182	0.00022753744
0.050513886	0.055238094	0.0013820643	0.00022753887
0.050710823	0.064679772	0.0016179455	0.00022753744
0.050907757	0.062693976	0.0015522551	0.00022753887
0.051104695	0.064334787	0.0015984088	0.00022753744
0.051301628	0.048064917	0.0011919935	0.00022753744
0.051498562	0.053058676	0.0013163816	0.00022753887
0.0516955	0.064935066	0.0016055473	0.00022753744
0.051892433	0.057527538	0.0014135585	0.00022753887
0.052089371	0.048148148	0.0011863481	0.0002275344
0.052286305	0.041287187	0.0010079246	0.00022753744
0.052483238	0.055927053	0.0013690337	0.00022753583
0.052680176	0.056534953	0.0013838945	0.0002275344
0.052877109	0.041337386	0.0010102087	0.00022753887
0.053074047	0.049427364	0.0012042724	0.0002275344
0.053270981	0.064477615	0.0015665591	0.00022753744
0.053467914	0.05071599	0.0012291144	0.00022753887
0.053664852	0.067765571	0.0016639051	0.0002275344
0.053861786	0.056346748	0.0013908958	0.00022753583
0.054058723	0.05479452	0.0013579789	0.0002275344
0.054255657	0.045145329	0.0011136146	0.0002275344
0.054452591	0.053158224	0.0013182334	0.00022753583
0.054649528	0.043668121	0.0010800561	0.0002275344
0.054846462	0.043260187	0.0010733629	0.00022753583
0.055043399	0.045998741	0.0011460027	0.00022753136
0.055240333	0.06127606	0.0015299944	0.0002275344
0.055437267	0.04977946	0.0012400134	0.00022753583
0.055634204	0.046307884	0.0011481546	0.00022753136
0.055831138	0.057631411	0.001439273	0.00022753279
0.056028076	0.05412209	0.0013463511	0.00022753136
0.056225009	0.048040453	0.0011970688	0.00022753136
0.056421943	0.063816212	0.0016014656	0.00022753279
0.05661888	0.037712131	0.00093572715	0.00022753136
0.056815814	0.049654305	0.0012341316	0.00022753279
0.057012752	0.049367089	0.001231693	0.00022753136
0.057209685	0.039772727	0.00098888087	0.00022752832
0.057406619	0.047979798	0.0011945911	0.00022753279
0.057603557	0.050536957	0.0012594245	0.00022753136
0.05780049	0.050632913	0.0012642185	0.00022753279
0.057997428	0.055276383	0.0013748532	0.00022752832
0.058194362	0.058080807	0.0014471509	0.00022752832
0.058391295	0.06127606	0.0015298295	0.00022752974
0.058588233	0.060150377	0.0014944663	0.00022752832
0.058785167	0.048101265	0.0011984966	0.00022752974
0.058982104	0.054054055	0.0013447368	0.00022752832
0.059179038	0.047738694	0.0011858053	0.00022752832
0.059375972	0.047199495	0.0011739681	0.00022752974
0.059572909	0.042606518	0.0010566309	0.00022752528
0.059769843	0.055450536	0.0013813571	0.00022752974
0.05996678	0.045848824	0.001131331	0.00022752528
0.060163714	0.04284814	0.0010649288	0.00022752528
0.060360648	0.038029924	0.00093868811	0.00022752974
0.060557585	0.051972449	0.0012904151	0.00022752528
0.060754519	0.055382702	0.0013703273	0.0002275267
0.060951456	0.045568042	0.0011280013	0.00022752528
0.06114839	0.054760423	0.0013554665	0.00022752528
0.061345324	0.04607721	0.0011414908	0.0002275267
0.061542261	0.049689442	0.0012274793	0.00022752528
0.061739195	0.044154231	0.0010903589	0.0002275267
0.061936133	0.032858029	0.00080886332	0.00022752528
0.062133066	0.043935645	0.0010835843	0.00022752528
0.06233	0.046153847	0.0011339319	0.00022752528
0.062526934	0.046971571	0.0011563111	0.0002275251
0.062723875	0.028535981	0.00070182933	0.00022751919
0.062920809	0.02836005	0.0006950103	0.00022752528
0.063117743	0.048357099	0.00119448	0.00022751919
0.063314676	0.047123622	0.0011565479	0.00022751919
0.06351161	0.042761147	0.0010478828	0.00022752814
0.063708551	0.061312079	0.0015084217	0.00022751919
0.063905485	0.051915947	0.0012813237	0.00022751919
0.064102419	0.047560975	0.001165098	0.00022751919
0.064299352	0.032455605	0.00079404621	0.00022752528
0.064496286	0.050030507	0.0012267574	0.00022752205
0.064693227	0.046172541	0.0011289153	0.00022751919
0.064890161	0.045454547	0.0011110638	0.00022751919
0.065087095	0.042150274	0.0010323123	0.00022752528
0.065284029	0.058032986	0.0014243223	0.00022752528
0.065480962	0.05024213	0.0012272225	0.00022752205
0.065677904	0.04993983	0.0012159818	0.00022752528
0.065874837	0.044767089	0.0010923336	0.00022751919
0.066071771	0.052980132	0.0012902319	0.00022751919
0.066268705	0.03808948	0.00092771481	0.00022751919
0.066465639	0.051173992	0.00124598	0.00022752205
0.06666258	0.041317366	0.0010010012	0.00022751919
0.066859514	0.035130225	0.00085606071	0.00022751919
0.067056447	0.047562424	0.0011505951	0.00022751919
0.067253381	0.045427375	0.0011007215	0.00022751919
0.067450315	0.043634191	0.0010569482	0.00022751596
0.067647256	0.051497005	0.0012511228	0.00022751919
0.06784419	0.050359711	0.0012239567	0.00022751919
0.068041123	0.043195266	0.0010422313	0.00022751311
0.068238057	0.042679314	0.0010301496	0.00022751311
0.068434991	0.039809864	0.00096210442	0.00022752205
0.068631932	0.046690308	0.001126191	0.00022751311
0.068828866	0.043660287	0.0010583014	0.00022751311
0.0690258	0.032729398	0.00078285194	0.00022751311
0.069222733	0.047815822	0.0011532982	0.00022751311
0.069419667	0.035460994	0.00085415796	0.00022751596
0.069616608	0.041031651	0.00098433066	0.00022751311
0.069813542	0.041691132	0.0010022102	0.00022751311
0.070010476	0.047114253	0.0011334663	0.00022751311
0.07020741	0.046072062	0.0011119203	0.00022751311
0.070404343	0.039283652	0.00093605951	0.00022752205
0.070601285	0.043199066	0.0010354376	0.00022751311
0.070798218	0.03486345	0.00083218369	0.00022751311
0.070995152	0.051026393	0.0012280078	0.00022751311
0.071192086	0.051955633	0.0012466963	0.00022751311
0.071389019	0.043728422	0.0010410072	0.00022751596
0.071585961	0.042923436	0.0010264933	0.00022750701
0.071782894	0.039884392	0.00095079414	0.00022751311
0.071979828	0.042948347	0.0010268157	0.00022751311
0.072176762	0.050720461	0.0012095086	0.00022751311
0.072373696	0.048137534	0.0011443231	0.00022751596
0.072570637	0.045797102	0.0010943792	0.00022751311
0.072767571	0.04491188	0.0010631429	0.00022750701
0.072964504	0.044560187	0.001063819	0.00022750701
0.073161438	0.037478704	0.00088553596	0.00022751311
0.073358372	0.037757438	0.00089417869	0.00022750988
0.073555313	0.031105991	0.00073880109	0.00022750701
0.073752247	0.037309214	0.00087932905	0.00022751311
0.073949181	0.047945205	0.0011376342	0.00022750701
0.074146114	0.044142615	0.0010424471	0.00022751311
0.074343048	0.03479749	0.00082314899	0.00022750988
0.074539989	0.03975014	0.00093993521	0.00022750701
0.074736923	0.044717718	0.0010490767	0.00022750701
0.074933857	0.044393852	0.0010518873	0.00022750701
0.07513079	0.048423424	0.0011410945	0.00022750701
0.075327724	0.037725225	0.00088691403	0.0002275038
0.075524665	0.04225352	0.00099576777	0.00022750701
0.075721599	0.039532293	0.00092536845	0.00022750093
0.075918533	0.052364863	0.0012343331	0.00022750701
0.076115467	0.038052604	0.00089279027	0.00022750701
0.0763124	0.035734225	0.000835491	0.00022750988
0.076509342	0.046162404	0.0010803167	0.00022750701
0.076706275	0.047196001	0.0011044627	0.00022750701
0.076903209	0.045403589	0.0010677796	0.00022750701
0.077100143	0.044628099	0.0010400529	0.00022750093
0.077297077	0.040465631	0.00094517914	0.0002275038
0.077494018	0.045050055	0.0010551672	0.00022750093
0.077690952	0.042880703	0.00099822565	0.00022750093
0.077887885	0.03788301	0.00088682724	0.00022750093
0.078084819	0.045751635	0.0010601423	0.00022750093
0.078281753	0.044578977	0.0010380144	0.0002275038
0.078478694	0.037424326	0.00087095838	0.00022750093
0.078675628	0.037684325	0.00087283162	0.00022750093
0.078872561	0.035281148	0.00082087464	0.00022750093
0.079069495	0.04250681	0.00098519598	0.00022750093
0.079266429	0.038188763	0.00088454114	0.0002275038
0.07946337	0.034351144	0.00079493003	0.00022750093
0.079660304	0.03407247	0.00078567769	0.00022750093
0.079857238	0.049699619	0.0011541182	0.00022750093
0.080054171	0.047593292	0.0010998048	0.00022750093
0.080251105	0.033242505	0.00076879526	0.0002275038
0.080448046	0.038814016	0.00089374976	0.00022749485
0.08064498	0.034796573	0.00079755537	0.00022750093
0.080841914	0.044986449	0.0010399059	0.00022750093
0.081038848	0.039699569	0.00091184181	0.00022749485
0.081235781	0.035714287	0.000823348	0.00022749772
0.081432723	0.05122732	0.001175815	0.00022749485
0.081629656	0.038933333	0.00089097349	0.00022749485
0.08182659	0.042849492	0.00098432624	0.00022749485
0.082023524	0.048430014	0.0011101703	0.00022749485
0.082220457	0.040619988	0.00093231257	0.00022749772
0.082417399	0.036266666	0.00083048752	0.00022749485
0.082614332	0.038318254	0.00087650598	0.00022749485
0.082811266	0.033988316	0.00077712769	0.00022749485
0.0830082	0.038421053	0.00087427802	0.00022749485
0.083205134	0.034883723	0.00079497509	0.00022749163
0.083402075	0.02852615	0.00064903469	0.00022749485
0.083599009	0.037253857	0.00085207628	0.00022749485
0.083795942	0.035152152	0.00079826836	0.00022748877
0.083992876	0.037192248	0.00084424892	0.00022749485
0.08418981	0.039790574	0.00090405758	0.00022749772
0.084386751	0.046049189	0.0010464354	0.00022748877
0.084583685	0.04286461	0.00097312091	0.00022749485
0.084780619	0.038001042	0.00086014275	0.00022749485
0.084977552	0.037056368	0.00083979516	0.00022748877
0.085174486	0.032574974	0.00073425774	0.00022749163
0.085371427	0.03796152	0.0008591286	0.00022748877
0.085568361	0.040144108	0.0009031361	0.00022748877
0.085765295	0.038065843	0.00085724174	0.00022748877
0.085962228	0.035974976	0.00081515743	0.00022748877
0.086159162	0.03861998	0.00086947595	0.00022748555
0.086356103	0.03567788	0.0007992374	0.00022748877
0.086553037	0.034907598	0.00078389159	0.00022748877
0.086749971	0.042153377	0.00094349711	0.00022748877
0.086946905	0.038065843	0.00085724174	0.00022748268
0.087143838	0.048656866	0.0010890194	0.00022749163
0.08734078	0.045385007	0.0010184558	0.00022748877
0.087537713	0.037487336	0.00083746033	0.00022748268
0.087734647	0.03743045	0.00083617418	0.00022748877
0.087931581	0.039126016	0.00087539648	0.00022748877
0.088128515	0.047212455	0.0010515023	0.00022748555
0.088325456	0.031722054	0.00070596655	0.00022748268
0.08852239	0.041518986	0.00092765194	0.00022748268
0.088719323	0.032950573	0.00073014706	0.00022748268
0.088916257	0.03507014	0.00077922281	0.00022748268
0.089113191	0.04945055	0.0010983995	0.00022748555
0.089310132	0.039960042	0.00088742864	0.00022748268
0.089507066	0.032370519	0.00071663887	0.00022748268
0.089703999	0.038690478	0.0008558057	0.00022748268
0.089900933	0.0405	0.00089911302	0.00022748268
0.090097867	0.045253322	0.00099699269	0.00022747947
0.090294808	0.035892323	0.00079567794	0.00022748268
0.090491742	0.036013812	0.00079430791	0.00022748268
0.090688676	0.049431536	0.0010927881	0.00022748268
0.090885609	0.052319843	0.0011555012	0.0002274766
0.091082543	0.059576564	0.0013141842	0.00022748268
0.091279477	0.055090997	0.0012144127	0.00022748555
0.091476418	0.05410723	0.0011931463	0.0002274766
0.091673352	0.048339844	0.0010613761	0.00022748268
0.091870286	0.046146292	0.0010167792	0.0002274766
0.092067219	0.051909894	0.0011427677	0.0002274766
0.092264153	0.043816943	0.00096105906	0.00022747947
0.092461094	0.040487804	0.00088864769	0.0002274766
0.092658028	0.046943765	0.0010321197	0.0002274766
0.092854962	0.039671022	0.00086705678	0.0002274766
0.093051895	0.044465926	0.00097201113	0.0002274766
0.093248829	0.046624575	0.0010216092	0.00022747337
0.09344577	0.046882551	0.0010248469	0.0002274766
0.093642704	0.048104957	0.0010543016	0.00022747052
0.093839638	0.044840887	0.00097886368	0.0002274766
0.094036572	0.04040404	0.00088016671	0.0002274766
0.094233505	0.039980732	0.00087136176	0.00022747947
0.094430447	0.044061303	0.00095865724	0.00022747052
0.09462738	0.041545894	0.00090730086	0.00022747052
0.094824314	0.046389289	0.0010087129	0.00022747052
0.095021248	0.045476306	0.00098908274	0.00022747052
0.095218182	0.037125178	0.00080412335	0.00022747337
0.095415123	0.037744865	0.00081919535	0.00022747052
0.095612057	0.042401142	0.00092002418	0.00022747052
0.09580899	0.037565384	0.00081388716	0.00022747052
0.096005924	0.034928229	0.00075880386	0.00022747052
0.096202858	0.038406827	0.00083017867	0.00022747337
0.096399799	0.033569738	0.00072423246	0.00022747052
0.096596733	0.04985889	0.0010748318	0.00022746444
0.096793666	0.043005671	0.00092895213	0.00022747052
0.0969906	0.031190926	0.00067243836	0.00022746444
0.097187534	0.041941565	0.00090498879	0.00022747337
0.097384475	0.040623523	0.00087688904	0.00022746444
0.097581409	0.038533833	0.00083003769	0.00022747052
0.097778343	0.033503957	0.00071730156	0.00022746444
0.097975276	0.043764707	0.00094349997	0.00022746444
0.09817221	0.043376867	0.00093131105	0.00022746729
0.098369151	0.036303632	0.0007830601	0.00022746444
0.098566085	0.041685965	0.00089146377	0.00022746444
0.098763019	0.040281031	0.00086582126	0.00022746444
0.098959953	0.038852915	0.00082996383	0.00022746444
0.099156886	0.034642033	0.00073890731	0.00022746121
0.099353828	0.044817928	0.00096301129	0.00022746444
0.099550761	0.045539033	0.00097573822	0.00022745834
0.099747695	0.035961274	0.00076672854	0.00022745834
0.099944629	0.038852915	0.00082960585	0.00022745834
0.10014156	0.040919539	0.00087188417	0.00022746121
0.1003385	0.032764189	0.00069845788	0.00022745834
0.10053544	0.043119267	0.00091816764	0.00022746444
0.10073237	0.036710039	0.00078573317	0.00022745834
0.1009293	0.041246563	0.00087762327	0.00022746444
0.10112624	0.040909089	0.00086654763	0.00022746121
0.10132318	0.045036763	0.0009598399	0.00022746444
0.10152011	0.035438437	0.00074994081	0.00022745834
0.10171705	0.039323274	0.00083489204	0.00022745834
0.10191398	0.049225159	0.0010452834	0.00022745834
0.10211091	0.041114666	0.0008730886	0.00022746121
0.10230786	0.037289675	0.00078920519	0.00022745834
0.10250479	0.040687162	0.00085864385	0.00022745226
0.10270172	0.029279279	0.00061631342	0.00022745226
0.10289866	0.040091116	0.00085003534	0.00022745226
0.10309559	0.033393502	0.00070420455	0.00022745512
0.10329253	0.033998188	0.00071840058	0.00022745226
0.10348947	0.037668161	0.00079217274	0.00022745834
0.1036864	0.039639641	0.00083593384	0.00022745226
0.10388333	0.03723643	0.00078307482	0.00022745226
0.10408027	0.037786774	0.00079591793	0.00022746121
0.10427721	0.037219729	0.00078289385	0.00022745226
0.10447414	0.038582325	0.00081207056	0.00022745226
0.10467108	0.039215688	0.00082234177	0.00022745226
0.10486801	0.038891371	0.00081652135	0.00022745226
0.10506494	0.044789355	0.00093788549	0.00022745512
0.10526188	0.040089086	0.00084083079	0.00022745226
0.10545882	0.049686659	0.0010460335	0.00022744617
0.10565575	0.052724857	0.0011045971	0.00022745226
0.10585269	0.047957372	0.0010053311	0.00022745226
0.10604962	0.065371022	0.0013683311	0.00022745512
0.10624656	0.052654866	0.0011020836	0.00022744617
0.10644349	0.060458958	0.0012645591	0.00022744617
0.10664043	0.050638486	0.0010580472	0.00022745226
0.10683736	0.056612119	0.0011853081	0.00022744617
0.1070343	0.058098592	0.0012135393	0.00022744904
0.10723124	0.064713597	0.0013481108	0.00022744617
0.10742817	0.048017621	0.0010029067	0.00022744617
0.1076251	0.056832973	0.0011787303	0.00022744617
0.10782204	0.054945055	0.0011463371	0.00022744617
0.10801897	0.054656755	0.0011377665	0.00022744904
0.10821591	0.052078776	0.0010843531	0.00022744617
0.10841285	0.054489974	0.0011327814	0.00022744617
0.10860978	0.05408914	0.0011203034	0.00022744009
0.10880671	0.052677788	0.0010986389	0.00022744009
0.10900365	0.054812256	0.0011339706	0.00022744904
0.10920059	0.053177692	0.0011006376	0.00022744009
0.10939752	0.038177874	0.0007901169	0.00022744009
0.10959446	0.050107993	0.0010363032	0.00022744009
0.10979139	0.05430061	0.0011271718	0.00022744009
0.10998832	0.05615088	0.001157843	0.00022744296
0.11018527	0.040103491	0.00082769716	0.00022744009
0.1103822	0.056872036	0.001175512	0.00022744009
0.11057913	0.05751073	0.0011867044	0.00022743401
0.11077607	0.050344232	0.0010396068	0.00022744009
0.110973	0.054088585	0.001111654	0.00022743687
0.11116994	0.05429671	0.0011178673	0.00022743401
0.11136688	0.051820129	0.0010678159	0.00022743401
0.11156381	0.046788599	0.00095981592	0.00022743401
0.11176074	0.053418804	0.0010996809	0.00022743401
0.11195768	0.060220525	0.0012352304	0.00022744296
0.11215462	0.056006841	0.0011530513	0.00022743401
0.11235155	0.052631579	0.0010795337	0.00022743401
0.11254849	0.066272691	0.0013568859	0.00022743401
0.11274542	0.072396271	0.0014847062	0.00022743401
0.11294235	0.066185832	0.0013584614	0.00022743687
0.11313929	0.066864155	0.0013707697	0.00022743401
0.11333623	0.070499368	0.0014392596	0.00022743401
0.11353316	0.078646936	0.0016127751	0.00022742792
0.1137301	0.083613448	0.0017092181	0.00022743401
0.11392703	0.063598327	0.0012963847	0.00022743079
0.11412397	0.076858461	0.0015704739	0.00022742792
0.1143209	0.073980667	0.0015124335	0.00022742792
0.11451784	0.07325241	0.0014938378	0.00022742792
0.11471477	0.083508186	0.0017058178	0.00022742792
0.11491171	0.091135047	0.0018504707	0.00022743079
0.11510865	0.10183639	0.0020757162	0.00022742792
0.11530558	0.11740217	0.0023819115	0.00022742792
0.11550251	0.10832288	0.0022109081	0.00022742792
0.11569945	0.14090344	0.0028636749	0.00022742792
0.11589638	0.20438561	0.0041526416	0.00022743079
0.11609332	0.29557669	0.0060049528	0.00022742792
0.11629026	0.52317882	0.010638126	0.00022742792
0.11648719	0.88218272	0.017929489	0.00022742184
0.11668412	1.4801817	0.030067828	0.00022742184
0.11688106	2.4490473	0.049833663	0.00022742471
0.117078	3.8902137	0.078869045	0.00022742184
0.11727493	5.637331	0.11403466	0.00022742184
0.11747187	7.7044616	0.15585323	0.00022742184
0.1176688	9.4255838	0.19082925	0.00022742184
0.11786573	11.101072	0.22544962	0.00022742471
0.11806267	12.050224	0.24347787	0.00022742184
0.11825961	12.794756	0.25894928	0.00022742184
0.11845654	12.831711	0.25838044	0.00022742184
0.11865348	12.326414	0.24866199	0.00022742184
0.11885041	11.703401	0.23686808	0.00022741863
0.11904735	10.78745	0.2170444	0.00022741576
0.11924428	10.03214	0.20233759	0.00022741576
0.11944122	8.9656153	0.18031031	0.00022741576
0.11963815	8.0012188	0.16123682	0.00022741576
0.11983509	6.8750501	0.13778329	0.00022741863
0.12003203	6.0181746	0.12092052	0.00022741576
0.12022896	4.8760667	0.098265477	0.00022741576
0.12042589	4.1327934	0.083131172	0.00022741576
0.12062283	3.3230462	0.066505603	0.00022741576
0.12081976	2.5118332	0.050290111	0.00022741863
0.1210167	1.8696001	0.037379462	0.00022741576
0.12121364	1.2964458	0.026045231	0.00022740968
0.12141057	0.90459085	0.018066594	0.00022740968
0.1216075	0.63497794	0.012711572	0.00022741576
0.12180444	0.46058917	0.0091849174	0.00022741254
0.12200138	0.37783977	0.0075385692	0.00022740968
0.12219831	0.32827476	0.006555594	0.00022741576
0.12239525	0.28118813	0.0055915848	0.00022741576
0.12259218	0.26408309	0.0052737175	0.00022740968
0.12278911	0.23875846	0.0047585201	0.00022741254
0.12298606	0.24463861	0.0048705251	0.00022740968
0.12318299	0.21456848	0.0042644874	0.00022740968
0.12337992	0.20753236	0.0041059926	0.00022740968
0.12357686	0.18008727	0.0035826173	0.00022740968
0.12377379	0.1623864	0.0032235284	0.00022740646
0.12397073	0.15396763	0.0030546372	0.00022740968
0.12416767	0.16103692	0.0031871772	0.00022740359
0.1243646	0.14224137	0.0028114447	0.00022740359
0.12456153	0.15299684	0.0030340937	0.00022740359
0.12475847	0.13166144	0.00260199	0.00022740646
0.12495541	0.12317985	0.0024393394	0.00022739463
0.12515233	0.12861611	0.0025388445	0.00022740323
0.12534928	0.11677696	0.0022994881	0.00022739751
0.12554622	0.12319124	0.0024319533	0.00022739751
0.12574315	0.1127089	0.0022176674	0.00022739751
0.12594008	0.10941774	0.0021586795	0.00022739751
0.12613702	0.10454722	0.0020568925	0.00022740968
0.12633395	0.10136452	0.0019974117	0.00022740968
0.12653089	0.096824169	0.0019011834	0.00022739751
0.12672782	0.093894899	0.0018417478	0.00022739751
0.12692475	0.098130845	0.001932499	0.00022739751
0.12712169	0.085758038	0.0016739867	0.00022740323
0.12731864	0.089813374	0.0017668209	0.00022739751
0.12751557	0.090034626	0.0017620758	0.00022739751
0.1277125	0.084615387	0.0016552306	0.00022739751
0.12790944	0.093086131	0.0018252387	0.00022739751
0.12810637	0.079200305	0.0015488107	0.00022739751
0.1283033	0.088922963	0.0017368407	0.00022739751
0.12850024	0.081257187	0.0015865295	0.00022739751
0.12869717	0.076864243	0.0014988617	0.00022738535
0.12889411	0.071840182	0.0014040646	0.00022739751
0.12909104	0.08824648	0.0017170886	0.00022740323
0.12928799	0.080521472	0.0015728092	0.00022739751
0.12948492	0.076165214	0.001478238	0.00022739751
0.12968186	0.067634694	0.0013179871	0.00022738535
0.12987879	0.0780655	0.0015190891	0.00022738535
0.13007572	0.063942492	0.0012397977	0.00022738535
0.13027266	0.069254182	0.0013468169	0.00022738535
0.13046959	0.064625852	0.0012523495	0.00022738535
0.13066652	0.059916571	0.001162888	0.00022738535
0.13086346	0.065406427	0.0012678996	0.00022739751
0.13106039	0.069767445	0.001347316	0.00022740323
0.13125734	0.061977185	0.0012046716	0.00022738535
0.13145427	0.059729528	0.0011537818	0.00022738535
0.13165121	0.058003768	0.0011215392	0.00022738535
0.13184814	0.06219558	0.0011999967	0.00022738535
0.13204508	0.06264066	0.0012091172	0.00022738535
0.13224201	0.066087611	0.0012803043	0.00022738535
0.13243894	0.068385653	0.0013179273	0.00022738535
0.13263588	0.06818182	0.0013121569	0.00022738535
0.13283281	0.059087511	0.0011388785	0.00022738535
0.13302974	0.07297904	0.0014075298	0.00022739106
0.13322669	0.055970151	0.0010770736	0.00022738535
0.13342363	0.049295776	0.00094521884	0.00022738535
0.13362056	0.058670629	0.0011268455	0.00022738535
0.13381749	0.057398435	0.0011043076	0.00022737318
0.13401443	0.05952381	0.0011441248	0.00022737318
0.13421136	0.050092764	0.0009611022	0.00022738535
0.1344083	0.059322033	0.0011349312	0.00022737318
0.13460523	0.053954177	0.001033439	0.00022737318
0.13480216	0.057249069	0.0010998124	0.00022737318
0.1349991	0.050740741	0.00097238435	0.0002273789
0.13519605	0.058008026	0.0011039922	0.00022737318
0.13539298	0.056645688	0.0010861577	0.00022737318
0.13558991	0.050915752	0.0009706858	0.00022737318
0.13578685	0.054759279	0.0010458149	0.00022737318
0.13598378	0.053094104	0.0010120745	0.00022737318
0.13618071	0.058541972	0.0011196735	0.00022737318
0.13637765	0.05053094	0.0009631922	0.00022737318
0.13657458	0.055900622	0.0010647505	0.00022737318
0.13677152	0.046647232	0.00088673941	0.00022737318
0.13696845	0.054869186	0.001042194	0.00022737318
0.13716538	0.050383352	0.00095897488	0.0002273789
0.13736233	0.053055249	0.0010111575	0.00022737318
0.13755926	0.051661849	0.00097810326	0.00022737318
0.1377562	0.05353241	0.0010177015	0.00022737318
0.13795313	0.051523946	0.00097763108	0.00022736102
0.13815007	0.058866017	0.0011148885	0.00022736102
0.138347	0.064176939	0.0012183245	0.00022737318
0.13854393	0.052517984	0.00099235284	0.00022737318
0.13874087	0.057818182	0.0010987516	0.00022736102
0.1389378	0.051985558	0.00098409993	0.00022736102
0.13913473	0.056252241	0.0010610969	0.00022736673
0.13933168	0.058590941	0.0011068721	0.00022737318
0.13952862	0.056014363	0.0010577637	0.00022737318
0.13972555	0.048691861	0.00092446286	0.00022736102
0.13992248	0.053813256	0.0010122062	0.00022736102
0.14011942	0.045894586	0.00086525601	0.00022736102
0.14031635	0.051144492	0.00096325582	0.00022737318
0.14051329	0.043168034	0.00081173948	0.00022736102
0.14071022	0.049874417	0.00094061415	0.00022736102
0.14090715	0.042168673	0.00078992249	0.00022736102
0.14110409	0.048554089	0.00091355882	0.00022736673
0.14130104	0.048248749	0.00090821559	0.00022736102
0.14149797	0.043231752	0.00081011956	0.00022736102
0.1416949	0.050017737	0.00093854248	0.00022734885
0.14189184	0.045936394	0.00085971126	0.00022736102
0.14208877	0.051071428	0.00096123957	0.00022736102
0.1422857	0.046791919	0.00087744335	0.00022736102
0.14248264	0.051246051	0.00095647189	0.00022736102
0.14267957	0.04219858	0.00079087587	0.00022736102
0.14287651	0.04920914	0.00091887487	0.00022736102
0.14307344	0.047062986	0.00088172546	0.00022735457
0.14327039	0.043569922	0.00081307563	0.00022736102
0.14346732	0.042927515	0.00080147327	0.00022734885
0.14366426	0.051597051	0.00096291775	0.00022734885
0.14386119	0.048087049	0.00089743722	0.00022736102
0.14405812	0.039229423	0.00073068077	0.00022734885
0.14425506	0.049529124	0.00092140213	0.00022734885
0.14445199	0.046650298	0.00087025121	0.00022734885
0.14464892	0.054054055	0.0010090296	0.00022734885
0.14484586	0.044838373	0.00083254493	0.00022734885
0.14504279	0.040097628	0.0007451491	0.00022735457
0.14523974	0.044574983	0.00082546903	0.00022734885
0.14543667	0.05612066	0.0010463382	0.00022733668
0.14563361	0.045470323	0.00084246183	0.00022734885
0.14583054	0.045881126	0.000850318	0.00022734885
0.14602748	0.046004843	0.00085049996	0.00022734885
0.14622441	0.04603669	0.00085298991	0.00022733668
0.14642134	0.047339324	0.00087649032	0.00022734885
0.14661828	0.049242426	0.00091015187	0.00022733668
0.14681521	0.042634316	0.00079028972	0.00022733668
0.14701214	0.05174198	0.0009574751	0.0002273424
0.14720909	0.037547365	0.00069326151	0.00022733668
0.14740603	0.04274388	0.00079031964	0.00022733668
0.14760296	0.053133514	0.00097729184	0.00022733668
0.14779989	0.043403376	0.00080188742	0.00022733668
0.14799683	0.046503618	0.00085966924	0.00022733668
0.14819376	0.04945055	0.00091286103	0.00022733668
0.1483907	0.043820608	0.00080756407	0.00022733668
0.14858763	0.041184478	0.00075653655	0.00022733668
0.14878456	0.040879425	0.00075407798	0.00022733668
0.1489815	0.0420339	0.00077060726	0.0002273424
0.14917845	0.043952301	0.0008078391	0.00022733668
0.14937538	0.041268758	0.00075870339	0.00022733668
0.14957231	0.042668473	0.0007818538	0.00022733668
0.14976925	0.043150686	0.00079504563	0.00022733668
0.14996618	0.03875969	0.00070827088	0.00022733668
0.15016311	0.043728814	0.00080178189	0.00022732452
0.15036005	0.042842571	0.00078669441	0.00022732452
0.15055698	0.037398923	0.0006831027	0.00022733668
0.15075392	0.038069341	0.00069822551	0.00022733668
0.15095085	0.048305936	0.00087614747	0.00022733024
0.1511478	0.046817109	0.00085384439	0.00022732452
0.15134473	0.046330739	0.00084661762	0.00022733668
0.15154167	0.038913116	0.00070948788	0.00022732452
0.1517386	0.04327248	0.00079221383	0.00022732452
0.15193553	0.050234426	0.00091572624	0.00022732452
0.15213247	0.051092438	0.00093298365	0.00022733668
0.1523294	0.042574588	0.00077637489	0.00022732452
0.15252633	0.044985004	0.00081799109	0.00022732452
0.15272327	0.043492805	0.00079202582	0.00022732452
0.1529202	0.040373705	0.00073425367	0.00022733024
0.15311715	0.04091214	0.00074584485	0.00022732452
0.15331408	0.03722167	0.00067546766	0.00022732452
0.15351102	0.036236703	0.00065755635	0.00022732452
0.15370795	0.032279532	0.00058559008	0.00022731235
0.15390489	0.036605656	0.0006646706	0.00022732452
0.15410182	0.043996029	0.00079703779	0.00022732452
0.15429875	0.045182724	0.00082029379	0.00022732452
0.15449569	0.038512617	0.00069861399	0.00022731235
0.15469262	0.042686962	0.00077320234	0.00022731235
0.15488955	0.037220027	0.00067235011	0.00022731809
0.1550865	0.0428195	0.00077388802	0.00022732452
0.15528344	0.038104706	0.00069049717	0.00022731235
0.15548037	0.035773434	0.00064770936	0.00022731235
0.1556773	0.047213115	0.00085172994	0.00022731235
0.15587424	0.040527184	0.00073232752	0.00022731235
0.15607117	0.040796343	0.00073375535	0.00022731235
0.1562681	0.036597427	0.00066136755	0.00022731235
0.15646504	0.038107753	0.00068741926	0.00022732452
0.15666197	0.035644211	0.00064078427	0.00022731235
0.15685891	0.034651846	0.00062304543	0.00022731809
0.15705585	0.033931486	0.00060935918	0.00022731235
0.15725279	0.031106746	0.00055975589	0.00022731235
0.15744972	0.039336801	0.00070604926	0.00022731235
0.15764666	0.03548177	0.00063684204	0.00022731235
0.15784359	0.036393441	0.00065536122	0.00022731235
0.15804052	0.04150454	0.00074369955	0.00022731235
0.15823746	0.04040404	0.00072555209	0.00022731235
0.15843439	0.037347071	0.00066643668	0.00022731235
0.15863132	0.034046691	0.0006093026	0.00022730019
0.15882826	0.037785016	0.00067839841	0.00022731809
0.15902521	0.040723983	0.00072859868	0.00022730019
0.15922214	0.036929056	0.00066138362	0.00022730019
0.15941907	0.038806926	0.00069183001	0.00022731235
0.15961601	0.042732276	0.00076553394	0.00022730019
0.15981294	0.045717966	0.00081690989	0.00022730019
0.16000988	0.042820349	0.00076477695	0.00022730019
0.16020681	0.035748791	0.00063776184	0.00022730019
0.16040374	0.03045848	0.00054228678	0.00022730019
0.16060068	0.035783365	0.00063915941	0.00022730019
0.16079761	0.034768742	0.00061752985	0.00022730592
0.16099456	0.042743221	0.00076014869	0.00022730019
0.16119149	0.038622465	0.00068943918	0.00022730019
0.16138843	0.038055643	0.00067715748	0.00022730019
0.16158536	0.030759372	0.00054714433	0.00022730019
0.16178229	0.03781379	0.00067071174	0.00022728802
0.16197923	0.035098914	0.00062337599	0.00022728802
0.16217616	0.03464717	0.00061345618	0.00022728802
0.1623731	0.039477874	0.0007009299	0.00022728802
0.16257003	0.031101238	0.00055090303	0.00022728802
0.16276696	0.036213469	0.00064190157	0.00022730592
0.16296391	0.03303685	0.00058514281	0.00022728802
0.16316085	0.028155647	0.00049721729	0.00022730019
0.16335778	0.043340717	0.0007671463	0.00022728802
0.16355471	0.039710052	0.0007015554	0.00022728802
0.16375165	0.041639768	0.00074456091	0.00022728802
0.16394858	0.039895356	0.00071806466	0.00022728802
0.16414551	0.037871368	0.00068087893	0.00022728802
0.16434245	0.040317252	0.00072938728	0.00022728802
0.16453938	0.043882977	0.00079643569	0.00022728802
0.16473632	0.04677581	0.00085094769	0.00022729376
0.16493326	0.040768195	0.00074427185	0.00022728802
0.1651302	0.034887623	0.00063535839	0.00022727586
0.16532713	0.029411765	0.0005401714	0.00022728802
0.16552407	0.0352065	0.00064409012	0.00022727586
0.165721	0.043389831	0.00079509598	0.00022728802
0.16591793	0.032955717	0.00060692109	0.00022727586
0.16611487	0.03565307	0.00065632362	0.00022727586
0.1663118	0.035416666	0.00065611996	0.00022728802
0.16650873	0.030250946	0.00055748475	0.00022728802
0.16670567	0.036169481	0.0006674793	0.00022728159
0.16690262	0.036470998	0.00067590608	0.00022727586
0.16709955	0.031696275	0.00058781839	0.00022727586
0.16729648	0.034761235	0.00064731279	0.00022727586
0.16749342	0.033077996	0.0006137357	0.00022727586
0.16769035	0.034977265	0.00065059232	0.00022727586
0.16788729	0.032485876	0.00060664699	0.00022727586
0.16808422	0.031988874	0.00059291895	0.00022727586
0.16828115	0.033297911	0.0006231853	0.00022727586
0.16847809	0.031612225	0.00058860349	0.00022726369
0.16867502	0.033309456	0.00062629796	0.00022728159
0.16887197	0.034409367	0.00064401433	0.00022727586
0.1690689	0.031779662	0.0005931381	0.00022726369
0.16926584	0.035536602	0.00066619494	0.00022727586
0.16946277	0.043091167	0.00080934883	0.00022727586
0.1696597	0.039913699	0.00075290957	0.00022726369
0.16985664	0.034912717	0.00065481395	0.00022726369
0.17005357	0.03215434	0.00060403754	0.00022727586
0.17025051	0.032339204	0.00060925476	0.00022726369
0.17044744	0.032986734	0.00062073226	0.00022726369
0.17064437	0.030630631	0.00057749171	0.00022726943
0.17084132	0.039596833	0.00074729248	0.00022727586
0.17103826	0.030965392	0.00058715051	0.00022726369
0.17123519	0.03257329	0.00061580562	0.00022726369
0.17143212	0.035649981	0.00067278492	0.00022726369
0.17162906	0.036192544	0.00068451936	0.00022726369
0.17182599	0.042944785	0.00081183284	0.00022726369
0.17202292	0.038291607	0.00073086406	0.00022726369
0.17221986	0.038838476	0.00073609647	0.00022726369
0.17241679	0.033175357	0.00062898279	0.00022726369
0.17261373	0.036456436	0.00069202046	0.00022725726
0.17281067	0.038587552	0.00073209917	0.00022726369
0.17300761	0.033015408	0.00062815129	0.00022726369
0.17320454	0.028061224	0.00053157023	0.00022725153
0.17340147	0.037296899	0.00071286905	0.00022725153
0.17359841	0.027644673	0.00052691269	0.00022725153
0.17379534	0.035989717	0.00068563921	0.00022726369
0.17399228	0.036303632	0.00069123256	0.00022726369
0.17418921	0.03005865	0.00057174294	0.00022725153
0.17438614	0.027167846	0.00052020705	0.00022725153
0.17458308	0.030973451	0.0005908981	0.00022725726
0.17478003	0.030359127	0.00058025087	0.00022725153
0.17497696	0.032162663	0.00061387842	0.00022725153
0.17517389	0.036370315	0.00069270871	0.00022725153
0.17537083	0.025477707	0.0004889649	0.00022723936
0.17556776	0.032496307	0.00061980577	0.00022723936
0.17576469	0.034649778	0.00066479377	0.00022723936
0.17596163	0.032884903	0.00063170213	0.00022725153
0.17615856	0.032282002	0.00061804341	0.00022725153
0.1763555	0.037216228	0.0007139137	0.00022725153
0.17655243	0.032293987	0.00061830488	0.00022724509
0.17674938	0.031179564	0.00060016179	0.00022723936
0.17694631	0.029246343	0.00056184339	0.00022723936
0.17714325	0.03516648	0.00067544793	0.00022725153
0.17734018	0.027788209	0.00053414353	0.00022723936
0.17753711	0.034585349	0.00066270732	0.00022723936
0.17773405	0.036814425	0.0007091196	0.00022723936
0.17793098	0.04037736	0.00078021281	0.00022723936
0.17812791	0.035272043	0.0006792706	0.00022723936
0.17832485	0.036479879	0.00070294039	0.00022723936
0.17852178	0.031614602	0.00060951745	0.00022724509
0.17871873	0.028312571	0.00054582959	0.00022723936
0.17891566	0.027464259	0.00052813999	0.00022723936
0.1791126	0.034378543	0.00066383806	0.00022722721
0.17930953	0.036995094	0.00071464793	0.00022723936
0.17950647	0.02918878	0.00056402996	0.00022723936
0.1797034	0.027599243	0.00053264824	0.00022723936
0.17990033	0.028668428	0.00055303465	0.00022723936
0.18009727	0.037642587	0.00073005515	0.00022722721
0.1802942	0.027641045	0.00053385895	0.00022722721
0.18049113	0.034060467	0.00066209736	0.00022723294
0.18068808	0.031451307	0.00060820486	0.00022722721
0.18088502	0.030314513	0.00058577565	0.00022722721
0.18108195	0.034298781	0.00066505268	0.00022722721
0.18127888	0.031166857	0.00060329121	0.00022722721
0.18147582	0.027480915	0.00053261826	0.00022722721
0.18167275	0.031107739	0.00060166611	0.00022722721
0.18186969	0.027203064	0.00052827894	0.00022722721
0.18206662	0.029141104	0.00056647143	0.00022722721
0.18226355	0.034822103	0.00067333964	0.00022721505
0.18246049	0.032988109	0.00064146938	0.00022723294
0.18265744	0.034364261	0.00066720881	0.00022721505
0.18285437	0.028055342	0.00054580392	0.00022722721
0.1830513	0.036552519	0.00071270607	0.00022722721
0.18324824	0.030857142	0.00059800746	0.00022721505
0.18344517	0.024596464	0.00047778836	0.00022721505
0.1836421	0.026457055	0.00051396119	0.00022721505
0.18383904	0.036153845	0.0007042588	0.00022721505
0.18403597	0.028055342	0.00054601202	0.00022721505
0.18423291	0.042708736	0.00083344319	0.00022721505
0.18442984	0.030220844	0.0005905552	0.00022722078
0.18462679	0.031058282	0.00060414494	0.00022721505
0.18482372	0.022753567	0.00044285957	0.00022721505
0.18502066	0.030745581	0.00059831602	0.00022721505
0.18521759	0.028615622	0.00055807648	0.00022721505
0.18541452	0.027885361	0.00054452772	0.00022721505
0.18561146	0.021596607	0.0004199832	0.00022721505
0.18580839	0.03006939	0.00058621855	0.00022721505
0.18600532	0.026713124	0.00052133057	0.00022720288
0.18620226	0.034924332	0.00068341743	0.00022721505
0.18639919	0.027110767	0.00052948471	0.00022722078
0.18659614	0.027519381	0.00053773774	0.00022720288
0.18679307	0.03354134	0.00065803668	0.00022720288
0.18699001	0.030923851	0.00060343224	0.00022720288
0.18718694	0.032672111	0.00064026646	0.00022720288
0.18738388	0.026497696	0.00051536597	0.00022720288
0.18758081	0.026284818	0.00051635288	0.00022721505
0.18777774	0.03420132	0.00066984049	0.00022720288
0.18797468	0.023364486	0.0004567751	0.00022720288
0.18817161	0.029228371	0.00057263271	0.00022719071
0.18836854	0.03250774	0.00063544017	0.00022720861
0.18856549	0.030684501	0.00060450198	0.00022719071
0.18876243	0.031529777	0.00061738299	0.00022720288
0.18895936	0.030799219	0.00060369913	0.00022720288
0.18915629	0.027745213	0.00054404238	0.00022719071
0.18935323	0.03006638	0.00058915588	0.00022719071
0.18955016	0.028246371	0.00055481109	0.00022720288
0.1897471	0.022153128	0.00043228961	0.00022719071
0.18994403	0.028951487	0.00056835363	0.00022720288
0.19014096	0.035053171	0.00069125666	0.00022719071
0.1903379	0.027247956	0.00053306675	0.00022719646
0.19053484	0.021268215	0.0004182407	0.00022719071
0.19073178	0.02258567	0.0004416524	0.00022719071
0.19092871	0.035798583	0.0007056552	0.00022719071
0.19112565	0.035573121	0.00070246402	0.00022719071
0.19132258	0.038191739	0.00074936851	0.00022719071
0.19151951	0.026782198	0.00052630372	0.00022719071
0.19171645	0.039670072	0.00078144547	0.00022719071
0.19191338	0.031508468	0.00062043004	0.00022717856
0.19211031	0.029411765	0.00057803129	0.00022719071
0.19230725	0.030231645	0.0005945302	0.00022719646
0.1925042	0.027788805	0.00054844847	0.00022719071
0.19270113	0.032258064	0.00063535047	0.00022719071
0.19289806	0.035053171	0.00069125666	0.00022719071
0.193095	0.027810419	0.00054563116	0.00022717856
0.19329193	0.030964669	0.00061259692	0.00022719071
0.19348887	0.033623416	0.00066389481	0.00022717856
0.1936858	0.035784505	0.00070489384	0.00022717856
0.19388273	0.032359906	0.0006386509	0.00022717856
0.19407967	0.03204114	0.00063295447	0.00022717856
0.1942766	0.028298127	0.00056016189	0.0002271843
0.19447355	0.027777778	0.00054489064	0.00022717856
0.19467048	0.028537456	0.00056363153	0.00022717856
0.19486742	0.03283228	0.00064832269	0.0002271664
0.19506435	0.030591974	0.00060529611	0.0002271664
0.19526128	0.042281613	0.00083987019	0.0002271664
0.19545822	0.029768899	0.00058487762	0.0002271664
0.19565515	0.030036043	0.00059685769	0.0002271664
0.19585209	0.031349208	0.00061984296	0.0002271664
0.19604902	0.029691212	0.00058618409	0.0002271664
0.19624595	0.030677291	0.00060803845	0.00022717213
0.1964429	0.03033885	0.00059800281	0.00022717856
0.19663984	0.030849358	0.000613162	0.0002271664
0.19683677	0.030027658	0.00059262506	0.0002271664
0.1970337	0.032348242	0.00064217666	0.0002271664
0.19723064	0.02701629	0.00053404295	0.0002271664
0.19742757	0.037331216	0.00073936774	0.0002271664
0.1976245	0.034122843	0.00067855261	0.00022715423
0.19782144	0.034441806	0.00068046438	0.0002271664
0.19801837	0.036341853	0.00072142819	0.0002271664
0.19821531	0.035101715	0.00069601304	0.00022715998
0.19841225	0.031050956	0.00061454374	0.0002271664
0.19860919	0.024019215	0.00047611145	0.00022715423
0.19880612	0.030519223	0.00060355087	0.00022715423
0.19900306	0.032971453	0.00065694173	0.00022715423
0.19919999	0.041084964	0.00081617688	0.00022715423
0.19939692	0.028685259	0.00056823931	0.00022715423
0.19959386	0.027419355	0.00054543948	0.0002271664
0.19979079	0.027070064	0.00053516688	0.00022715423
0.19998772	0.024448898	0.00048460689	0.00022715423
0.20018466	0.02352472	0.00046502094	0.00022715998
0.20038161	0.030558906	0.00060820987	0.00022715423
0.20057854	0.023609444	0.00046794678	0.00022715423
0.20077547	0.028765481	0.00057062507	0.00022715423
0.20097241	0.026983488	0.00053744437	0.00022715423
0.20116934	0.032348242	0.00064187887	0.00022715423
0.20136628	0.0277666	0.00055271207	0.00022714208
0.20156321	0.026020817	0.00051596196	0.00022715423
0.20176014	0.032648128	0.00065102777	0.00022714208
0.20195708	0.028823059	0.00057211507	0.00022715423
0.20215401	0.033293221	0.00066212285	0.00022715998
0.20235096	0.033024568	0.00065872847	0.00022714208
0.20254789	0.032412965	0.00064380653	0.00022714208
0.20274483	0.028397566	0.00056680711	0.00022714208
0.20294176	0.021208484	0.00041970666	0.00022714208
0.20313869	0.025869038	0.00051560515	0.00022714208
0.20333563	0.033131313	0.00066112733	0.00022714208
0.20353256	0.02270012	0.00044840091	0.00022712992
0.2037295	0.028432168	0.00056819757	0.00022712992
0.20392643	0.03364037	0.00066884607	0.00022714208
0.20412336	0.033685066	0.00067424489	0.00022714782
0.20432031	0.034663443	0.00069133699	0.00022714208
0.20451725	0.032477949	0.00064594351	0.00022714208
0.20471418	0.030056864	0.00060132827	0.00022712992
0.20491111	0.035985604	0.00071462954	0.00022714208
0.20510805	0.029662739	0.00059281697	0.00022712992
0.20530498	0.035137318	0.00070071255	0.00022712992
0.20550191	0.034524288	0.00068680081	0.00022712992
0.20569885	0.030204082	0.00060507801	0.00022712992
0.20589578	0.027265437	0.00054132933	0.00022712992
0.20609272	0.030142566	0.00060401426	0.00022713565
0.20628966	0.031842001	0.00063451758	0.00022712992
0.2064866	0.027586207	0.00055127515	0.00022711777
0.20668353	0.025609756	0.00051141332	0.00022712992
0.20688047	0.027800161	0.00055288681	0.00022712992
0.2070774	0.032414909	0.00064760394	0.00022711777
0.20727433	0.033427306	0.00066612737	0.00022711777
0.20747127	0.023217922	0.00046426972	0.00022711777
0.2076682	0.025182778	0.00050298736	0.00022712992
0.20786513	0.02384802	0.00047505859	0.00022712992
0.20806207	0.030944625	0.00061943609	0.0002271235
0.20825902	0.022607993	0.00044953948	0.00022711777
0.20845595	0.030969845	0.00062063005	0.00022711777
0.20865288	0.034747474	0.00069375773	0.00022711777
0.20884982	0.028583094	0.00057296624	0.00022711777
0.20904675	0.028071603	0.00056160532	0.00022711777
0.20924369	0.023935091	0.00047780288	0.0002271056
0.20944062	0.034831915	0.00069676561	0.00022711777
0.20963755	0.026753141	0.00053414312	0.00022711777
0.20983449	0.03125	0.00062940316	0.00022711777
0.21003142	0.028409092	0.00056774146	0.00022711133
0.21022837	0.027687296	0.00055382104	0.00022711777
0.2104253	0.028117359	0.00056249805	0.00022711777
0.21062224	0.02700524	0.00053785095	0.0002271056
0.21081917	0.028842192	0.00058065506	0.0002271056
0.2110161	0.030769231	0.00061439251	0.0002271056
0.21121304	0.034201954	0.00068556797	0.0002271056
0.21140997	0.035466775	0.00071049668	0.0002271056
0.2116069	0.023692811	0.00047395096	0.0002271056
0.21180384	0.02783463	0.00055837102	0.0002271056
0.21200077	0.025454545	0.00050716102	0.00022711133
0.21219772	0.026337449	0.00052954274	0.00022709343
0.21239465	0.029580936	0.00059459754	0.0002271056
0.21259159	0.03168156	0.00063357357	0.0002271056
0.21278852	0.029387755	0.00058878161	0.0002271056
0.21298546	0.038555194	0.00077182212	0.00022709343
0.21318239	0.029290428	0.00058941031	0.00022709343
0.21337932	0.028409092	0.00056727015	0.00022709343
0.21357626	0.031058438	0.00062285707	0.0002271056
0.21377319	0.029715229	0.00059912144	0.0002271056
0.21397012	0.02035002	0.0004056725	0.00022709918
0.21416707	0.025745811	0.00051549473	0.00022709343
0.21436401	0.026498165	0.00053061004	0.00022709343
0.21456094	0.026705012	0.00053657749	0.00022709343
0.21475787	0.019293925	0.0003862759	0.00022708128
0.21495481	0.022476502	0.00044955587	0.00022709343
0.21515174	0.027857436	0.0005593035	0.00022709343
0.21534868	0.023331968	0.00046710795	0.00022708128
0.21554561	0.022643063	0.00045456292	0.00022709343
0.21574254	0.024918301	0.00049917848	0.00022708128
0.21593948	0.024279835	0.00048773564	0.00022709918
0.21613643	0.021756979	0.00043609546	0.00022708128
0.21633336	0.024190241	0.00048546441	0.00022708128
0.21653029	0.024239935	0.00048624838	0.00022708128
0.21672723	0.021623828	0.00043225498	0.00022709343
0.21692416	0.021030927	0.00042245505	0.00022708128
0.21712109	0.021355236	0.00042835093	0.00022708128
0.21731803	0.026283368	0.00052830589	0.00022708128
0.21751496	0.021819679	0.00043814161	0.00022708128
0.2177119	0.020366598	0.0004065012	0.00022708128
0.21790883	0.025342749	0.00051170838	0.00022708702
0.21810578	0.021650327	0.00043289241	0.00022708128
0.21830271	0.019008264	0.00038151449	0.00022708128
0.21849965	0.025925925	0.00052118202	0.00022706912
0.21869658	0.024549918	0.0004923977	0.00022708128
0.21889351	0.02694859	0.00054446043	0.00022706912
0.21909045	0.02253175	0.00045182396	0.00022706912
0.21928738	0.026413538	0.00053197169	0.00022706912
0.21948431	0.028052805	0.00056482543	0.00022706912
0.21968125	0.023838881	0.00047877678	0.00022706912
0.21987818	0.021048287	0.00042281198	0.00022707487
0.22007513	0.024150634	0.00048413069	0.00022706912
0.22027206	0.027789298	0.00056081096	0.00022706912
0.220469	0.02134647	0.00042776373	0.00022706912
0.22066593	0.022764901	0.00045777255	0.00022705697
0.22086287	0.022643063	0.00045502337	0.00022705697
0.2210598	0.02472188	0.00049673644	0.00022705697
0.22125673	0.022755481	0.0004577981	0.00022705697
0.22145367	0.024380166	0.00049076235	0.00022705697
0.2216506	0.020247934	0.00040711375	0.00022706912
0.22184753	0.025514403	0.00051254901	0.00022707487
0.22204448	0.02240664	0.00045163909	0.00022705697
0.22224142	0.018564356	0.00037236107	0.00022705697
0.22243835	0.024742268	0.00049721007	0.00022705697
0.22263528	0.02694859	0.00054393645	0.00022705697
0.22283222	0.027138159	0.0005458442	0.00022704482
0.22302915	0.030391341	0.00061526505	0.00022705697
0.22322609	0.025609253	0.00051609363	0.00022704482
0.22342302	0.028771065	0.00057850819	0.00022704482
0.22361995	0.027812371	0.00056189182	0.00022705697
0.22381689	0.031791907	0.00064126105	0.0002270627
0.22401384	0.023799583	0.00048197858	0.00022704482
0.22421077	0.027983539	0.00056273449	0.00022704482
0.2244077	0.028571429	0.0005765502	0.00022704482
0.22460464	0.027465668	0.0005554969	0.00022704482
0.22480157	0.034496918	0.00069395796	0.00022704482
0.2249985	0.031446543	0.00063824194	0.00022704482
0.22519544	0.023770493	0.00047613948	0.00022704482
0.22539237	0.025363825	0.00051220652	0.00022704482
0.22558931	0.024257632	0.00049115106	0.00022704482
0.22578624	0.032284431	0.00064810587	0.00022703838
0.22598319	0.033319451	0.00067522429	0.00022703265
0.22618012	0.034725092	0.0007012586	0.00022704482
0.22637706	0.02427794	0.00049221539	0.00022704482
0.22657399	0.03273933	0.00066142355	0.00022703265
0.22677092	0.030265341	0.00061109231	0.00022703265
0.22696786	0.029850746	0.00060310692	0.00022703265
0.22716479	0.030227743	0.00061041949	0.00022704482
0.22736172	0.017984107	0.0003633622	0.00022703265
0.22755866	0.022727273	0.00045725581	0.00022703265
0.22775559	0.024237359	0.00049068418	0.00022703265
0.22795253	0.025704809	0.00051857304	0.00022703838
0.22814947	0.02616279	0.00052847737	0.00022703265
0.22834641	0.03233831	0.00065359689	0.00022703265
0.22854334	0.025342749	0.00051198871	0.0002270205
0.22874027	0.025641026	0.00052119797	0.00022703265
0.22893721	0.020635575	0.00041458168	0.00022703265
0.22913414	0.022878535	0.00046229651	0.0002270205
0.22933108	0.028654486	0.0005788189	0.0002270205
0.22952801	0.026677782	0.00054010982	0.0002270205
0.22972494	0.023323616	0.00047151485	0.0002270205
0.22992188	0.023631841	0.00047659228	0.00022703838
0.23011883	0.024091294	0.00049056049	0.0002270205
0.23031576	0.02601156	0.00052430428	0.0002270205
0.23051269	0.025801081	0.00052176591	0.0002270205
0.23070963	0.027083334	0.00054775743	0.0002270205
0.23090656	0.024046434	0.00048489694	0.00022700834
0.23110349	0.023909396	0.0004850144	0.00022700834
0.23130043	0.021276595	0.00043004882	0.0002270205
0.23149736	0.022462562	0.00045333122	0.0002270205
0.2316943	0.021720968	0.00043890541	0.0002270205
0.23189123	0.027812371	0.00056176446	0.00022701408
0.23208818	0.025565801	0.00051847979	0.00022700834
0.23228511	0.026644463	0.00053869624	0.00022700834
0.23248205	0.018804848	0.0003794287	0.00022700834
0.23267898	0.023041476	0.00046677209	0.00022700834
0.23287591	0.024937656	0.00050382549	0.00022700834
0.23307285	0.03136763	0.00063618587	0.00022700834
0.23326978	0.024603836	0.00049782393	0.00022700834
0.23346671	0.026293823	0.00053258962	0.00022700834
0.23366365	0.028174937	0.00057304633	0.00022700834
0.23386058	0.026711185	0.00054099021	0.00022701408
0.23405753	0.027663087	0.00055737339	0.00022699618
0.23425446	0.018931426	0.00038384928	0.00022700834
0.2344514	0.025587248	0.00051899021	0.00022699618
0.23464833	0.023819473	0.00048228039	0.00022699618
0.23484527	0.020066889	0.00040536589	0.00022700834
0.2350422	0.024665551	0.00049925939	0.00022700834
0.23523913	0.028139437	0.00057222258	0.00022699618
0.23543607	0.028309742	0.00057273021	0.00022699618
0.235633	0.030936455	0.0006281531	0.00022699618
0.23582993	0.028487641	0.00057839241	0.00022700192
0.23602688	0.030736841	0.00062590756	0.00022698403
0.23622382	0.028345143	0.00057418371	0.00022699618
0.23642075	0.028797997	0.0005835474	0.00022699618
0.23661768	0.025984911	0.00052721327	0.00022698403
0.23681462	0.016835017	0.00034044526	0.00022698403
0.23701155	0.024237359	0.00049023761	0.00022699618
0.23720849	0.025898078	0.00052429433	0.00022698403
0.23740542	0.025188917	0.00051117066	0.00022699618
0.23760235	0.030607967	0.00062209315	0.00022698403
0.23779929	0.026039479	0.00052803359	0.00022698977
0.23799624	0.024207011	0.00048946566	0.00022698403
0.23819317	0.021017235	0.00042561453	0.00022698403
0.2383901	0.021410579	0.00043360612	0.00022698403
0.23858704	0.032677002	0.00066333904	0.00022698403
0.23878397	0.028918693	0.00058684393	0.00022698403
0.2389809	0.030620806	0.00062189129	0.00022697187
0.23917784	0.026481714	0.00053789513	0.00022697187
0.23937477	0.029907329	0.00060850021	0.00022698403
0.23957171	0.020519262	0.00041532543	0.00022697187
0.23976864	0.028773978	0.00058269291	0.00022697762
0.23996559	0.019368421	0.00039221992	0.00022697187
0.24016252	0.021996615	0.00044627086	0.00022697187
0.24035946	0.022582019	0.00046130616	0.00022697187
0.24055639	0.01775148	0.00035981156	0.00022697187
0.24075332	0.019591141	0.00039958625	0.00022697187
0.24095026	0.018447019	0.00037748355	0.00022697187
0.24114719	0.02212766	0.00045146217	0.00022697187
0.24134412	0.02783726	0.00057134172	0.00022697187
0.24154106	0.018119069	0.0003716959	0.00022697187
0.24173799	0.022011222	0.00045251593	0.00022696547
0.24193494	0.019965278	0.00041128779	0.00022697187
0.24213187	0.022805508	0.00046800193	0.00022695972
0.24232881	0.02798426	0.00057998498	0.00022697187
0.24252574	0.024048973	0.00049755553	0.00022695972
0.24272268	0.02139738	0.00044208483	0.00022695972
0.24291961	0.01893439	0.00039167251	0.00022695972
0.24311654	0.02175805	0.00044923669	0.00022695972
0.24331348	0.022656597	0.00047238034	0.00022695972
0.24351041	0.02292769	0.00047616989	0.00022695972
0.24370734	0.016285211	0.00033657523	0.00022696547
0.24390429	0.022686834	0.00047332636	0.00022695972
0.24410123	0.018336315	0.00038263184	0.00022695972
0.24429816	0.015985791	0.00033169481	0.00022694757
0.24449509	0.019643674	0.00041457964	0.00022694757
0.24469203	0.025345622	0.00053870329	0.00022695972
0.24488896	0.020618556	0.00044110406	0.00022694757
0.2450859	0.017395392	0.00037129805	0.00022694757
0.24528283	0.026029343	0.00055989396	0.00022694757
0.24547976	0.02479733	0.00053559517	0.00022694757
0.2456767	0.021174205	0.00045808495	0.0002269533
0.24587364	0.02068302	0.00044816817	0.00022694757
0.24607058	0.017969888	0.00038984566	0.0002269354
0.24626751	0.020833334	0.00045256081	0.00022694757
0.24646445	0.016740521	0.00036604839	0.00022694757
0.24666138	0.017690418	0.00038553364	0.00022694757
0.24685831	0.023680316	0.00052012858	0.0002269354
0.24705525	0.027322404	0.00060274656	0.0002269354
0.24725218	0.023464803	0.00051833765	0.0002269354
0.24744911	0.021618905	0.0004784023	0.00022694757
0.24764605	0.026986506	0.00059677783	0.00022694115
0.247843	0.019133938	0.00042347139	0.0002269354
0.24803993	0.025051124	0.00055980473	0.0002269354
0.24823686	0.022552537	0.00050407631	0.0002269354
0.2484338	0.025967414	0.00057963812	0.00022692325
0.24863073	0.019032922	0.0004252716	0.0002269354
0.24882767	0.033436213	0.00075214327	0.00022692325
0.2490246	0.019141231	0.00042858438	0.00022692325
0.24922153	0.032915361	0.00074426626	0.00022692325
0.24941847	0.025947068	0.00058433646	0.00022692325
0.2496154	0.01950448	0.00044150875	0.000226929
0.24981235	0.016367476	0.00036967383	0.00022692965
0.25000927	0.024020888	0.00054226944	0.00022692325
0.2502062	0.0208	0.00047364301	0.0002269354
0.25040314	0.018008474	0.00040732793	0.0002269111
0.25060007	0.023796646	0.0005463651	0.0002269226
0.25079703	0.026175214	0.00059892982	0.0002269111
0.25099397	0.031703386	0.00072756928	0.0002269111
0.2511909	0.023874119	0.00054903579	0.0002269111
0.25138783	0.023155628	0.00053061132	0.0002269111
0.25158477	0.01907357	0.00043823457	0.0002269111
0.2517817	0.017467249	0.00040096717	0.0002269111
0.25197864	0.027945206	0.00064635416	0.0002269111
0.25217557	0.023822716	0.0005537094	0.0002269111
0.2523725	0.019209661	0.00044330728	0.0002269111
0.25256944	0.01389661	0.0003211069	0.0002269111
0.25276637	0.022209883	0.0005159119	0.0002269111
0.2529633	0.018425461	0.00042600211	0.0002268868
0.25316024	0.019144144	0.00044646763	0.0002269111
0.25335717	0.013644116	0.00031740591	0.0002269111
0.25355411	0.018746339	0.00044626679	0.0002269111
0.25375104	0.02166065	0.00052279682	0.0002269111
0.25394797	0.025966184	0.00063046202	0.0002268868
0.25414491	0.02948403	0.00072266336	0.0002269111
0.25434184	0.017710309	0.00043694349	0.0002269111
0.25453877	0.020833334	0.00052231568	0.0002269226
0.25473574	0.019476159	0.00049550307	0.0002268868
0.25493267	0.018392371	0.00046987963	0.0002269111
0.25512961	0.020166898	0.00052210188	0.0002269111
0.25532654	0.025550036	0.00066978659	0.0002269111
0.25552347	0.016023306	0.0004217269	0.0002268868
0.25572041	0.025	0.0006759247	0.0002269111
0.25591734	0.028363047	0.00079477765	0.0002269111
0.25611427	0.024935512	0.00071700622	0.0002268868
0.25631121	0.024657534	0.0007305101	0.0002268868
0.25650814	0.027332705	0.00082389941	0.0002268868
0.25670508	0.028073572	0.00085551449	0.0002268868
0.25690201	0.011627907	0.0003606528	0.0002268868
0.25709894	0.026936026	0.00087907031	0.0002268868
0.25729588	0.027154664	0.00089852349	0.0002268868
0.25749281	0.019184653	0.00064091425	0.0002268868
0.25768974	0.020125786	0.00068285823	0.0002268868
0.25788668	0.02457956	0.00085599301	0.0002268868
0.25808361	0.020026702	0.00070404285	0.0002268868
0.25828055	0.010943913	0.00037206433	0.0002268868
0.25847748	0.015736766	0.00056792563	0.00022689829
0.25867444	0.014556041	0.00052723283	0.00022686248
0.25887138	0.018348623	0.00068224024	0.00022686248
0.25906831	0.026234567	0.00099320814	0.00022686248
0.25926524	0.014263075	0.00053575548	0.0002268868
0.25946218	0.015050167	0.00057261228	0.00022686248
0.25965911	0.028862478	0.0011504769	0.0002268868
0.25985605	0.013864818	0.00054038956	0.0002268868
0.26005298	0.034722224	0.0014076332	0.00022686248
0.26024991	0.02972028	0.0011977145	0.00022686248
0.26044685	0.021428572	0.00085449801	0.0002268868
0.26064378	0.024955437	0.00099930819	0.00022686248
0.26084071	0.021582734	0.00087046321	0.00022686248
0.26103765	0.031307552	0.0012998176	0.00022686248
0.26123458	0.018518519	0.00075671636	0.00022686248
0.26143152	0.02264151	0.00093533669	0.0002268868
0.26162845	0.029574862	0.001232286	0.00022686248
0.26182538	0.030592734	0.0012746972	0.00022686248
0.26202232	0.017612524	0.00073529268	0.00022686248
0.26221925	0.039682541	0.0017154553	0.00022686248
0.26241618	0.038240917	0.0016227701	0.00022684968
0.26261315	0.027777778	0.0011869208	0.00022683818
0.26281008	0.028455285	0.0012306382	0.00022686248
0.26300701	0.030800821	0.0013433357	0.00022686248
0.26320395	0.016096579	0.00065148505	0.00022683818
0.26340088	0.025369979	0.0011180335	0.00022686248
0.26359782	0.029288704	0.0012922562	0.00022683818
0.26379475	0.02991453	0.0013265755	0.00022686248
0.26399168	0.02991453	0.0013339249	0.00022683818
0.26418862	0.032608695	0.0014704338	0.00022683818
0.26438555	0.011185682	0.00047373999	0.00022683818
0.26458248	0.013729977	0.00060025521	0.00022683818
0.26477942	0.017937221	0.00079538825	0.00022683818
0.26497635	0.018648019	0.0008431694	0.00022686248
0.26517329	0.032634031	0.0015200453	0.00022683818
0.26537022	0.06356968	0.0030765422	0.00022683818
0.26556715	0.021634616	0.0010012647	0.00022683818
0.26576409	0.027227722	0.0012931903	0.00022683818
0.26596102	0.030303031	0.0014597996	0.00022683818
0.26615795	0.041450776	0.0020454456	0.00022683818
0.26635489	0.040920716	0.0020063031	0.00022684968
0.26655185	0.023872679	0.0011607294	0.00022681388
0.26674879	0.030136986	0.0015060966	0.00022683818
0.26694572	0.045945946	0.0023033104	0.00022683818
0.26714265	0.02739726	0.0013623155	0.00022681388
0.26733959	0.031073445	0.0015769057	0.00022681388
0.26753652	0.039999999	0.0020518966	0.00022681388
0.26773345	0.018126888	0.00091091043	0.00022683818
0.26793039	0.023880597	0.0012222949	0.00022683818
0.26812732	0.026627218	0.0013675229	0.00022683818
0.26832426	0.040624999	0.0021571307	0.00022683818
0.26852119	0.041269843	0.0022376231	0.00022683818
0.26871812	0.022508038	0.0011835413	0.00022683818
0.26891506	0.01607717	0.00081672106	0.00022681388
0.26911199	0.030303031	0.0016605959	0.00022683818
0.26930892	0.033557046	0.0018472546	0.00022683818
0.26950586	0.044982698	0.0025302665	0.00022683818
0.26970279	0.037800688	0.0021164322	0.00022681388
0.26989973	0.025362318	0.0014159542	0.00022681388
0.27009666	0	0	0.00022681388
0.27029359	0.0076335878	0.00033411308	0.00022684968
0.27049056	0.010989011	0.00054403715	0.00022681388
0.27068749	0.0038910506	0	0.00022681388
0.27088442	0.0080321282	0.00036065321	0.00022681388
0.27108136	0	0	0.00022681388
0.27127829	0	0	0.00022681388
0.27147523	0	0	0.00022681388
0.27167216	0	0	0.00022681388
0.27186909	0	0	0.00022681388
0.27206603	0	0	0.00022681388
0.27226296	0	0	0.00022681388
