#   DataFileName=PAL30_35C_WAXS_08172017.tif
#   DataFileType=.tif
#   
#   DataFilePath=E:DATA:PAL30_08262017:
#   
#   Processed on=Wed, Jan 16, 2019,2:40:48 AM
#   Units=Arbitrary
#   SampleThickness=1
#   SampleTransmission=1
#   CorrectionFactor=1
#   SampleMeasurementTime=1
#   EmptyMeasurementTime=1
#   BackgroundMeasTime=1
#   SampleI0=1
#   EmptyI0=1
#   Nika_SampleToDetectorDistacne=1552.1
#   Nika_Wavelength=1.54
#   Nika_XrayEnergy=8.0509
#   Nika_PixelSizeX=0.075
#   Nika_PixelSizeY=0.075
#   Nika_HorizontalTilt=0
#   Nika_VerticalTilt=0
#   Nika_BeamCenterX=1540.3
#   Nika_BeamCenterY=830.17
#   Nika_BeamSizeX=0
#   Nika_BeamCenterY=830.17
#   CalibrationFormula=1*((Sa2D))
#   CurrentMaskFileName=PAL30_30C_WAXS_mask.hdf
#   QvectorMaxNumPnts=1
#   QvectorNumberPoints=1383
#   CircularAverage=1
#   PolarizationCorrection=None
#   UncertainityCalculationMethod=OldNikaMethod

0.0060065244	15	10.511898	0.00022756745
0.00620346	12	2.3847852	0.00022756765
0.0064003952	8.8771935	1.171903	0.00022756765
0.0065973303	9.125	1.0187503	0.00022756765
0.0067942655	11.367347	1.1463252	0.00022756765
0.0069912006	13.196261	1.2633381	0.00022756745
0.0071881362	15.811476	1.4101453	0.00022756727
0.0073850714	17.610687	1.513618	0.00022756727
0.0075820065	18.131035	1.4870058	0.00022756727
0.0077789417	17.129251	1.3952773	0.00022756745
0.0079758773	14.943038	1.1769433	0.00022756746
0.0081728119	13.165645	1.0199213	0.00022756707
0.0083697475	12.224719	0.90715808	0.00022756671
0.0085666822	10.658031	0.76023817	0.00022756783
0.0087636178	9.8769226	0.69970924	0.00022756783
0.0089605534	8.9336491	0.60939407	0.00022756746
0.0091574881	7.855895	0.51517409	0.00022756707
0.0093544237	6.9320002	0.43549529	0.00022756671
0.0095513584	6.4258556	0.39330545	0.00022756707
0.009748294	5.709559	0.34393626	0.00022756707
0.0099452296	5.1588449	0.30807418	0.00022756595
0.010142164	4.9568343	0.29526967	0.00022756707
0.0103391	4.6195288	0.26657104	0.00022756671
0.010536035	4.0305085	0.23337235	0.00022756707
0.01073297	3.8815789	0.22131729	0.00022756783
0.010929906	3.5434084	0.19976903	0.00022756746
0.01112684	3.5015974	0.1968732	0.00022756783
0.011323776	3.060241	0.16703543	0.00022756746
0.011520711	3.0060976	0.16532092	0.00022756707
0.011717646	2.7041421	0.14626795	0.00022756707
0.011914582	2.5380118	0.1365066	0.00022756746
0.012111517	2.3971014	0.12846906	0.00022756783
0.012308452	2.1208792	0.11061465	0.00022756671
0.012505387	2.1638417	0.11433777	0.00022756783
0.012702323	1.9021164	0.097443461	0.00022756783
0.012899258	1.8927613	0.09759672	0.00022756671
0.013096193	1.8062828	0.09201844	0.00022756707
0.013293128	1.7442455	0.087789617	0.00022756671
0.013490063	1.7319587	0.087606922	0.00022756707
0.013686999	1.5955882	0.078627408	0.00022756707
0.013883934	1.4890511	0.073157884	0.00022756671
0.014080869	1.4186603	0.069116861	0.00022756707
0.014277805	1.3035294	0.063007683	0.00022756671
0.014474739	1.177305	0.057019558	0.0002275663
0.014671675	1.2821671	0.060683642	0.00022756707
0.014868611	1.1022727	0.052360103	0.00022756671
0.015065545	1.0263736	0.047939733	0.0002275663
0.015262481	1.0665236	0.049213253	0.00022756671
0.015459416	0.98681319	0.046110258	0.00022756595
0.01565635	0.92324096	0.04247639	0.00022756707
0.015853286	0.93418258	0.042893421	0.00022756554
0.016050221	0.92989689	0.042064212	0.00022756707
0.016247157	0.86437249	0.038790029	0.00022756707
0.016444093	0.75800002	0.033798177	0.00022756483
0.016641026	0.77911645	0.03483142	0.00022756707
0.016837962	0.73346692	0.032720629	0.00022756707
0.017034898	0.81712061	0.035945833	0.00022756554
0.017231833	0.69407266	0.03026012	0.00022756554
0.017428769	0.65844405	0.028601907	0.00022756483
0.017625703	0.67850465	0.02925607	0.00022756554
0.017822638	0.66666669	0.028692754	0.00022756554
0.018019574	0.59742647	0.025536971	0.00022756554
0.018216509	0.58759123	0.025022339	0.00022756554
0.018413445	0.5903399	0.024907868	0.00022756483
0.018610379	0.56360424	0.02363481	0.00022756554
0.018807314	0.49738219	0.020723881	0.00022756554
0.01900425	0.54592723	0.022662563	0.00022756554
0.019201186	0.49825174	0.020778282	0.00022756554
0.019398121	0.4522613	0.018462216	0.00022756483
0.019595055	0.50847459	0.020873666	0.00022756554
0.019791991	0.45289257	0.01836253	0.00022756554
0.019988926	0.46280992	0.018755896	0.00022756554
0.020185862	0.40686274	0.016397798	0.00022756554
0.020382797	0.41082802	0.01634738	0.00022756483
0.020579731	0.42718446	0.017139962	0.00022756403
0.020776667	0.4184953	0.016523721	0.00022756403
0.020973602	0.39749607	0.015674451	0.00022756554
0.021170538	0.40781251	0.016087871	0.00022756403
0.021367474	0.41327301	0.016003152	0.0002275633
0.021564407	0.36842105	0.01445474	0.00022756403
0.021761343	0.37967116	0.014642024	0.00022756403
0.021958278	0.32428357	0.012561169	0.00022756403
0.022155214	0.37885463	0.014480972	0.00022756403
0.02235215	0.33720931	0.012821521	0.0002275633
0.022549083	0.32305434	0.012349345	0.00022756403
0.022746019	0.34468085	0.01294867	0.00022756403
0.022942955	0.31850788	0.012030803	0.00022756403
0.02313989	0.30268741	0.011354417	0.00022756403
0.023336826	0.32496512	0.012106541	0.0002275633
0.02353376	0.32911393	0.012308944	0.00022756403
0.023730695	0.31343284	0.011515661	0.00022756403
0.023927631	0.26896551	0.0099619236	0.0002275625
0.024124566	0.30831099	0.011259069	0.00022756403
0.024321502	0.25067025	0.0091476645	0.00022756179
0.024518436	0.28322148	0.010347775	0.0002275625
0.024715371	0.29644269	0.010735439	0.0002275625
0.024912307	0.30383092	0.011019056	0.0002275625
0.025109243	0.26598465	0.0094855065	0.0002275625
0.025306178	0.27296248	0.0097935256	0.00022756179
0.025503112	0.26181355	0.0093306322	0.0002275625
0.025700048	0.23506989	0.0083568133	0.0002275625
0.025896983	0.24554707	0.0087327203	0.0002275625
0.026093919	0.24137931	0.0084456932	0.00022756097
0.026290854	0.22208437	0.0077977073	0.00022756179
0.026487788	0.20975609	0.0073031625	0.0002275625
0.026684724	0.20782396	0.0072426074	0.00022756097
0.026881659	0.19488429	0.0067808856	0.0002275625
0.027078595	0.22792363	0.0078512607	0.00022756097
0.027275531	0.19253911	0.0066572349	0.00022756179
0.027472464	0.20023283	0.0068103713	0.00022756097
0.0276694	0.22340426	0.0076574278	0.00022756097
0.027866336	0.20649652	0.0070120161	0.00022756097
0.028063271	0.2116279	0.0071957572	0.00022756097
0.028260207	0.23076923	0.0078541208	0.00022756026
0.028457141	0.20089787	0.0067089493	0.00022756097
0.028654076	0.21566401	0.0072448151	0.00022756097
0.028851012	0.20581655	0.0068643619	0.00022756097
0.029047947	0.1881299	0.006275353	0.00022756097
0.029244883	0.19797525	0.0066169663	0.00022756026
0.029441817	0.20697168	0.0068129995	0.00022756097
0.029638752	0.20879121	0.0069028786	0.00022755946
0.029835688	0.18662351	0.0061117895	0.00022756097
0.030032624	0.19569893	0.0063981488	0.00022755946
0.030229559	0.17099567	0.0056051207	0.00022755875
0.030426493	0.18510638	0.0060201325	0.00022755946
0.030623429	0.16400427	0.0053354753	0.00022755946
0.030820364	0.16924664	0.005419733	0.00022755946
0.0310173	0.18191378	0.0058822101	0.00022755946
0.031214235	0.17531121	0.0056288154	0.00022755946
0.031411171	0.18480493	0.005903508	0.00022755875
0.031608105	0.20475698	0.0065675834	0.00022755571
0.031805038	0.18907988	0.005995186	0.00022756017
0.032001976	0.15672396	0.0049670273	0.00022755875
0.03219891	0.17386934	0.0054951417	0.00022756017
0.032395847	0.16083916	0.0050672102	0.00022755875
0.032592781	0.16881827	0.0053042942	0.00022755875
0.032789715	0.1594912	0.0049721235	0.00022756017
0.032986652	0.17438424	0.0054578399	0.00022755571
0.033183586	0.1587147	0.0049373428	0.00022755713
0.033380523	0.16473988	0.005098138	0.00022755875
0.033577457	0.18208092	0.0056362567	0.00022755571
0.033774391	0.15252621	0.0046940334	0.00022755713
0.033971328	0.16125955	0.0049664848	0.00022755571
0.034168262	0.17502365	0.0053676157	0.00022756017
0.0343652	0.14985862	0.0045870952	0.00022755571
0.034562133	0.15506035	0.0047091823	0.00022755571
0.034759067	0.15213358	0.0046193176	0.00022756017
0.034956004	0.14351852	0.0043541235	0.00022755571
0.035152938	0.14063928	0.0042356993	0.00022755713
0.035349876	0.15967153	0.0048090797	0.00022755571
0.035546809	0.14972776	0.0044968878	0.00022755571
0.035743743	0.14039855	0.0042123436	0.00022755713
0.035940681	0.15874439	0.0047393478	0.00022755571
0.036137614	0.13943161	0.0041419263	0.00022755713
0.036334552	0.1571936	0.0046709492	0.00022755266
0.036531486	0.14197531	0.00420349	0.00022755266
0.036728419	0.16313933	0.0048317099	0.00022755713
0.036925357	0.14782609	0.0043465393	0.00022755571
0.037122291	0.15291052	0.0044937744	0.00022755713
0.037319228	0.16117851	0.0047322796	0.00022755571
0.037516162	0.13486005	0.0039156359	0.00022755266
0.037713096	0.15338475	0.0044776769	0.00022755713
0.037910033	0.14565587	0.0042384895	0.00022755266
0.038106967	0.13061917	0.003792516	0.00022755409
0.038303904	0.1443038	0.0041800248	0.00022755266
0.038500838	0.14642262	0.004211572	0.00022755266
0.038697772	0.14297521	0.0040983926	0.00022755409
0.038894709	0.15066226	0.0043225833	0.00022755266
0.039091643	0.1414392	0.0040558642	0.00022755409
0.03928858	0.13196722	0.0037663938	0.00022755266
0.039485514	0.13647442	0.0038776619	0.00022755266
0.039682448	0.15028432	0.0042723743	0.00022755409
0.039879385	0.12931727	0.0036537733	0.00022755266
0.040076319	0.1464	0.0041290317	0.00022755409
0.040273257	0.14526485	0.004103295	0.00022754962
0.04047019	0.13206047	0.0037138399	0.00022754962
0.040667124	0.11199365	0.0031450782	0.00022755409
0.040864062	0.14229867	0.0039677215	0.00022755266
0.041060995	0.125972	0.0035014239	0.00022755409
0.041257933	0.13416536	0.0037358797	0.00022754962
0.041454867	0.1307393	0.0036361469	0.00022755266
0.0416518	0.10583658	0.0029419304	0.00022755409
0.041848738	0.14351144	0.0039544455	0.00022754962
0.042045671	0.12547529	0.0034499441	0.00022754801
0.042242609	0.13155894	0.0036178208	0.00022754657
0.042439543	0.12908125	0.0035467709	0.00022754353
0.042636476	0.11269722	0.0030787853	0.00022754801
0.042833414	0.11972892	0.0032746787	0.00022754657
0.043030348	0.12845407	0.0034998292	0.00022754801
0.043227285	0.1211226	0.0032814771	0.00022754353
0.043424219	0.1311717	0.0035505355	0.00022754353
0.043621153	0.12867647	0.0034786977	0.00022754801
0.04381809	0.13343109	0.0036032465	0.00022754353
0.044015024	0.13825896	0.0037291348	0.00022754495
0.044211961	0.13188405	0.0035407485	0.00022754353
0.044408895	0.12014388	0.003212844	0.00022754353
0.044605829	0.125	0.003341245	0.00022754495
0.044802766	0.12625538	0.0033719556	0.00022754353
0.0449997	0.12062813	0.0032136906	0.00022754495
0.045196638	0.12226149	0.0032411858	0.00022754353
0.045393571	0.13049646	0.0034662241	0.00022754353
0.045590505	0.12964261	0.0034213052	0.00022754495
0.045787442	0.1227209	0.0032404831	0.00022754048
0.045984376	0.11597222	0.0030466013	0.00022754191
0.046181314	0.12630118	0.0033182651	0.00022754353
0.046378247	0.10911603	0.0028577899	0.00022754048
0.046575181	0.13052486	0.0034204787	0.00022754191
0.046772119	0.12474298	0.0032567368	0.00022754353
0.046969052	0.1313819	0.0034179285	0.00022754495
0.04716599	0.13087934	0.003407293	0.00022754048
0.047362924	0.13005391	0.0033664992	0.00022754048
0.047559857	0.10254692	0.0026457836	0.00022754495
0.047756795	0.11148421	0.0028801127	0.00022754048
0.047953729	0.091213949	0.0023532943	0.00022754495
0.048150666	0.1307233	0.0033569231	0.00022754048
0.0483476	0.11678832	0.0029975723	0.00022754048
0.048544534	0.12311722	0.0031410465	0.00022754191
0.048741471	0.11865524	0.0030363363	0.00022753744
0.048938405	0.10684039	0.0027180088	0.00022754191
0.049135342	0.13499345	0.0034450779	0.00022754048
0.049332276	0.1257291	0.0031904608	0.00022753744
0.04952921	0.12871927	0.0032632027	0.00022753887
0.049726147	0.12250161	0.0031007512	0.00022753744
0.049923081	0.12222926	0.003065994	0.00022754191
0.050120018	0.1387468	0.0034984008	0.00022753744
0.050316952	0.12923865	0.0032589529	0.00022753744
0.050513886	0.12444445	0.0031259046	0.00022753887
0.050710823	0.10399493	0.0026091519	0.00022753744
0.050907757	0.099937923	0.0024804226	0.00022753887
0.051104695	0.11242973	0.0027998786	0.00022753744
0.051301628	0.12109863	0.0030156444	0.00022753744
0.051498562	0.094257176	0.0023448721	0.00022753887
0.0516955	0.12987013	0.003219486	0.00022753744
0.051892433	0.10403917	0.0025645676	0.00022753887
0.052089371	0.11481482	0.0028426524	0.0002275344
0.052286305	0.12629023	0.0031019424	0.00022753744
0.052483238	0.12036474	0.0029581094	0.00022753583
0.052680176	0.099088147	0.0024341056	0.0002275344
0.052877109	0.11306991	0.002778084	0.00022753887
0.053074047	0.11995178	0.0029337625	0.0002275344
0.053270981	0.10208955	0.0024849714	0.00022753744
0.053467914	0.11634845	0.0028326216	0.00022753887
0.053664852	0.11538462	0.0028412316	0.0002275344
0.053861786	0.10712074	0.002655711	0.00022753583
0.054058723	0.12391034	0.0030814663	0.0002275344
0.054255657	0.12059369	0.0029890919	0.0002275344
0.054452591	0.10881801	0.0027099869	0.00022753583
0.054649528	0.12102308	0.0030124998	0.0002275344
0.054846462	0.090282135	0.002251023	0.00022753583
0.055043399	0.11279143	0.0028203789	0.00022753136
0.055240333	0.12444725	0.0031167546	0.0002275344
0.055437267	0.10901071	0.0027258594	0.00022753583
0.055634204	0.10325406	0.0025729807	0.00022753136
0.055831138	0.13046232	0.0032720421	0.00022753279
0.056028076	0.15040906	0.0037623949	0.00022753136
0.056225009	0.10493047	0.0026278447	0.00022753136
0.056421943	0.1027441	0.0025848423	0.00022753279
0.05661888	0.12193589	0.0030460011	0.00022753136
0.056815814	0.1062225	0.0026531992	0.00022753279
0.057012752	0.10759494	0.0026963409	0.00022753136
0.057209685	0.095328286	0.0023849634	0.00022752832
0.057406619	0.12689394	0.0031778303	0.00022753279
0.057603557	0.12128869	0.0030378988	0.00022753136
0.05780049	0.12088607	0.0030311965	0.00022753279
0.057997428	0.10615578	0.0026504186	0.00022752832
0.058194362	0.11931818	0.0029870258	0.00022752832
0.058391295	0.13076437	0.0032750089	0.00022752974
0.058588233	0.13909775	0.0034706425	0.00022752832
0.058785167	0.13544303	0.0033966636	0.00022752974
0.058982104	0.13073538	0.003266651	0.00022752832
0.059179038	0.14007537	0.0035002099	0.00022752832
0.059375972	0.11076149	0.0027687813	0.00022752974
0.059572909	0.12468672	0.0031107953	0.00022752528
0.059769843	0.11531191	0.0028843619	0.00022752974
0.05996678	0.14745973	0.0036588807	0.00022752528
0.060163714	0.13547574	0.0033896076	0.00022752528
0.060360648	0.097256854	0.0024182408	0.00022752974
0.060557585	0.12398247	0.0030917847	0.00022752528
0.060754519	0.12943372	0.0032179013	0.0002275267
0.060951456	0.13358302	0.0033261895	0.00022752528
0.06114839	0.13316739	0.0033119128	0.00022752528
0.061345324	0.14259028	0.0035472692	0.0002275267
0.061542261	0.14720497	0.0036574807	0.00022752528
0.061739195	0.1318408	0.0032768839	0.0002275267
0.061936133	0.11903286	0.0029532015	0.00022752528
0.062133066	0.11571782	0.0028674735	0.00022752528
0.06233	0.112	0.0027681359	0.00022752528
0.062526934	0.098887518	0.0024469281	0.0002275251
0.062723875	0.117866	0.002925734	0.00022751919
0.062920809	0.10850801	0.0026840866	0.00022752528
0.063117743	0.086174831	0.0021361483	0.00022751919
0.063314676	0.096695229	0.0023823599	0.00022751919
0.06351161	0.10690287	0.0026328433	0.00022752814
0.063708551	0.093807481	0.0023136083	0.00022751919
0.063905485	0.11063041	0.0027402998	0.00022751919
0.064102419	0.10731708	0.0026405253	0.00022751919
0.064299352	0.09063074	0.0022317385	0.00022752528
0.064496286	0.092739478	0.0022816954	0.00022752205
0.064693227	0.092345081	0.0022665591	0.00022751919
0.064890161	0.087272726	0.0021384554	0.00022751919
0.065087095	0.077580944	0.0019084682	0.00022752528
0.065284029	0.095907144	0.0023615607	0.00022752528
0.065480962	0.090799034	0.0022252852	0.00022752205
0.065677904	0.088447653	0.0021604954	0.00022752528
0.065874837	0.10223836	0.0025052174	0.00022751919
0.066071771	0.090307042	0.0022073188	0.00022751919
0.066268705	0.075574368	0.0018494609	0.00022751919
0.066465639	0.075857915	0.0018517463	0.00022752205
0.06666258	0.079640716	0.0019402031	0.00022751919
0.066859514	0.091459721	0.0022406443	0.00022751919
0.067056447	0.086206898	0.0020935372	0.00022751919
0.067253381	0.07830245	0.0019057209	0.00022751919
0.067450315	0.091452479	0.0022264409	0.00022751596
0.067647256	0.082634732	0.0020134521	0.00022751919
0.06784419	0.094724223	0.0023102493	0.00022751919
0.068041123	0.08698225	0.0021071136	0.00022751311
0.068238057	0.083580323	0.002026438	0.00022751311
0.068434991	0.086749852	0.0021058726	0.00022752205
0.068631932	0.093971632	0.0022761014	0.00022751311
0.068828866	0.083133973	0.0020243791	0.00022751311
0.0690258	0.079485677	0.0019134162	0.00022751311
0.069222733	0.087957494	0.0021285696	0.00022751311
0.069419667	0.07742317	0.0018738152	0.00022751596
0.069616608	0.086166471	0.0020780195	0.00022751311
0.069813542	0.072812684	0.0017565298	0.00022751311
0.070010476	0.076560661	0.0018492487	0.00022751311
0.07020741	0.08741878	0.0021155961	0.00022751311
0.070404343	0.072790295	0.0017422058	0.00022752205
0.070601285	0.082895502	0.00199479	0.00022751311
0.070798218	0.10575247	0.0025402005	0.00022751311
0.070995152	0.086217009	0.0020799453	0.00022751311
0.071192086	0.076474026	0.0018393489	0.00022751311
0.071389019	0.073072501	0.0017444093	0.00022751596
0.071585961	0.073665895	0.0017663684	0.00022750701
0.071782894	0.078034684	0.0018677514	0.00022751311
0.071979828	0.069645964	0.0016698079	0.00022751311
0.072176762	0.081268013	0.0019428136	0.00022751311
0.072373696	0.076790832	0.0018298759	0.00022751596
0.072570637	0.065507248	0.0015692001	0.00022751311
0.072767571	0.075611144	0.001794802	0.00022750701
0.072964504	0.074074075	0.0017741737	0.00022750701
0.073161438	0.072118118	0.001710661	0.00022751311
0.073358372	0.060640734	0.0014426771	0.00022750988
0.073555313	0.084677421	0.0020244713	0.00022750701
0.073752247	0.075183719	0.0017792973	0.00022751311
0.073949181	0.073630139	0.0017508492	0.00022750701
0.074146114	0.070175439	0.0016610773	0.00022751311
0.074343048	0.073588133	0.0017488198	0.00022750988
0.074539989	0.064168088	0.0015213193	0.00022750701
0.074736923	0.05254332	0.0012345649	0.00022750701
0.074933857	0.068867385	0.0016342567	0.00022750701
0.07513079	0.065878376	0.0015558207	0.00022750701
0.075327724	0.077702701	0.0018363644	0.0002275038
0.075524665	0.05690141	0.0013429353	0.00022750701
0.075721599	0.072939865	0.0017128013	0.00022750093
0.075918533	0.079391889	0.0018752478	0.00022750701
0.076115467	0.078903191	0.0018586169	0.00022750701
0.0763124	0.082077049	0.0019319194	0.00022750988
0.076509342	0.10011123	0.0023534356	0.00022750701
0.076706275	0.064963907	0.0015235326	0.00022750701
0.076903209	0.062219732	0.0014660142	0.00022750701
0.077100143	0.068870522	0.0016093932	0.00022750093
0.077297077	0.063192904	0.0014803088	0.0002275038
0.077494018	0.078976639	0.001854809	0.00022750093
0.077690952	0.078064874	0.0018231408	0.00022750093
0.077887885	0.071309194	0.001676064	0.00022750093
0.078084819	0.063180827	0.0014675538	0.00022750093
0.078281753	0.064391851	0.0015036713	0.0002275038
0.078478694	0.06879472	0.0016063208	0.00022750093
0.078675628	0.0780994	0.0018181098	0.00022750093
0.078872561	0.056780595	0.0013260246	0.00022750093
0.079069495	0.069209807	0.0016082142	0.00022750093
0.079266429	0.063284233	0.0014707169	0.0002275038
0.07946337	0.055070885	0.0012791514	0.00022750093
0.079660304	0.06760411	0.0015654011	0.00022750093
0.079857238	0.055707265	0.0012945681	0.00022750093
0.080054171	0.067063279	0.001552201	0.00022750093
0.080251105	0.068119891	0.0015828417	0.0002275038
0.080448046	0.063072778	0.0014579112	0.00022749485
0.08064498	0.06423983	0.00147824	0.00022750093
0.080841914	0.071544714	0.0016583215	0.00022750093
0.081038848	0.079399139	0.0018317137	0.00022749485
0.081235781	0.070887446	0.0016421649	0.00022749772
0.081432723	0.084311634	0.001940627	0.00022749485
0.081629656	0.064533331	0.0014822048	0.00022749485
0.08182659	0.071237281	0.0016414077	0.00022749485
0.082023524	0.069717936	0.00160131	0.00022749485
0.082220457	0.077498667	0.0017843298	0.00022749772
0.082417399	0.0656	0.0015076892	0.00022749485
0.082614332	0.063863754	0.0014659963	0.00022749485
0.082811266	0.067976631	0.0015587804	0.00022749485
0.0830082	0.048947368	0.0011162558	0.00022749485
0.083205134	0.06501057	0.0014876097	0.00022749163
0.083402075	0.061806656	0.001413391	0.00022749485
0.083599009	0.056412987	0.0012945581	0.00022749485
0.083795942	0.074501574	0.0017002381	0.00022748877
0.083992876	0.068098478	0.0015518882	0.00022749485
0.08418981	0.05183246	0.0011793316	0.00022749772
0.084386751	0.06436421	0.0014659645	0.00022748877
0.084583685	0.071615264	0.0016310263	0.00022749485
0.084780619	0.076002084	0.0017269999	0.00022749485
0.084977552	0.065762006	0.0014958377	0.00022748877
0.085174486	0.069803514	0.0015801208	0.00022749163
0.085371427	0.068122722	0.001547021	0.00022748877
0.085568361	0.075141534	0.0016975057	0.00022748877
0.085765295	0.06430041	0.0014511094	0.00022748877
0.085962228	0.055265903	0.0012553809	0.00022748877
0.086159162	0.069515966	0.0015708001	0.00022748555
0.086356103	0.066258922	0.0014895998	0.00022748877
0.086553037	0.075462013	0.0017031756	0.00022748877
0.086749971	0.06043677	0.0013551639	0.00022748877
0.086946905	0.066358022	0.0014984813	0.00022748268
0.087143838	0.064368978	0.0014425347	0.00022749163
0.08734078	0.074451812	0.0016747379	0.00022748877
0.087537713	0.079027355	0.0017718297	0.00022748268
0.087734647	0.072837636	0.001631274	0.00022748877
0.087931581	0.07215447	0.0016195419	0.00022748877
0.088128515	0.056755397	0.0012657308	0.00022748555
0.088325456	0.058912385	0.0013156555	0.00022748268
0.08852239	0.068354428	0.0015309105	0.00022748268
0.088719323	0.07089366	0.0015775084	0.00022748268
0.088916257	0.072645292	0.0016194164	0.00022748268
0.089113191	0.082417585	0.0018355028	0.00022748555
0.089310132	0.060939062	0.0013553244	0.00022748268
0.089507066	0.075199202	0.0016713772	0.00022748268
0.089703999	0.067460321	0.001496156	0.00022748268
0.089900933	0.07	0.0015587542	0.00022748268
0.090097867	0.060501721	0.0013349152	0.00022747947
0.090294808	0.051844466	0.0011510673	0.00022748268
0.090491742	0.05870745	0.0012977784	0.00022748268
0.090688676	0.061295107	0.0013565473	0.00022748268
0.090885609	0.056762092	0.0012549253	0.0002274766
0.091082543	0.061546035	0.0013594757	0.00022748268
0.091279477	0.056566652	0.0012484484	0.00022748555
0.091476418	0.072306938	0.0015967223	0.0002274766
0.091673352	0.078125	0.0017205398	0.00022748268
0.091870286	0.068237603	0.0015059753	0.0002274766
0.092067219	0.059745349	0.0013156901	0.0002274766
0.092264153	0.061830573	0.001358378	0.00022747947
0.092461094	0.056585364	0.00124364	0.0002274766
0.092658028	0.06454768	0.0014216341	0.0002274766
0.092854962	0.064828254	0.0014193342	0.0002274766
0.093051895	0.058965683	0.0012903662	0.0002274766
0.093248829	0.058766391	0.0012894212	0.00022747337
0.09344577	0.060415659	0.00132236	0.0002274766
0.093642704	0.067055397	0.0014722599	0.00022747052
0.093839638	0.06219865	0.0013596368	0.0002274766
0.094036572	0.048100047	0.0010492452	0.0002274766
0.094233505	0.064547203	0.0014106679	0.00022747947
0.094430447	0.05651341	0.0012310024	0.00022747052
0.09462738	0.06859903	0.0015018306	0.00022747052
0.094824314	0.056910571	0.0012387333	0.00022747052
0.095021248	0.062230732	0.0013553395	0.00022747052
0.095218182	0.069014758	0.0015000324	0.00022747337
0.095415123	0.061634019	0.0013412434	0.00022747052
0.095612057	0.062410671	0.0013564739	0.00022747052
0.09580899	0.062291965	0.0013525254	0.00022747052
0.096005924	0.056937799	0.0012393574	0.00022747052
0.096202858	0.064959697	0.0014086874	0.00022747337
0.096399799	0.058628842	0.0012690744	0.00022747052
0.096596733	0.06208843	0.001341077	0.00022746444
0.096793666	0.062381852	0.0013506745	0.00022747052
0.0969906	0.054347824	0.0011756168	0.00022746444
0.097187534	0.057021677	0.0012319083	0.00022747337
0.097384475	0.051487956	0.0011133996	0.00022746444
0.097581409	0.050281953	0.0010841921	0.00022747052
0.097778343	0.054909259	0.0011782704	0.00022746444
0.097975276	0.065882355	0.0014233124	0.00022746444
0.09817221	0.059701491	0.0012834232	0.00022746729
0.098369151	0.066949554	0.0014479089	0.00022746444
0.098566085	0.058360353	0.0012502681	0.00022746444
0.098763019	0.055737704	0.0012004607	0.00022746444
0.098959953	0.059204441	0.0012675043	0.00022746444
0.099156886	0.049422633	0.0010567001	0.00022746121
0.099353828	0.063025214	0.0013556854	0.00022746444
0.099550761	0.054832716	0.0011765751	0.00022745834
0.099747695	0.063162751	0.0013510684	0.00022745834
0.099944629	0.048566144	0.0010385099	0.00022745834
0.10014156	0.057931036	0.001236574	0.00022746121
0.1003385	0.053068757	0.0011347004	0.00022745834
0.10053544	0.050458714	0.0010751324	0.00022746444
0.10073237	0.056691449	0.0012167577	0.00022745834
0.1009293	0.056370303	0.0012010037	0.00022746444
0.10112624	0.062727273	0.001332164	0.00022746121
0.10132318	0.051930148	0.001107685	0.00022746444
0.10152011	0.055429351	0.001175708	0.00022745834
0.10171705	0.065386377	0.0013920212	0.00022745834
0.10191398	0.062898815	0.0013369957	0.00022745834
0.10211091	0.052078575	0.0011076048	0.00022746121
0.10230786	0.059117779	0.0012550603	0.00022745834
0.10250479	0.071428575	0.0015133996	0.00022745226
0.10270172	0.054054055	0.0011419802	0.00022745226
0.10289866	0.072437361	0.0015405042	0.00022745226
0.10309559	0.063176893	0.0013365332	0.00022745512
0.10329253	0.06482321	0.0013744124	0.00022745226
0.10348947	0.073542602	0.0015517237	0.00022745834
0.1036864	0.064414412	0.0013616313	0.00022745226
0.10388333	0.062359802	0.0013152069	0.00022745226
0.10408027	0.073324338	0.0015496267	0.00022746121
0.10427721	0.07399103	0.0015615182	0.00022745226
0.10447414	0.068192013	0.0014388672	0.00022745226
0.10467108	0.076203212	0.0016030282	0.00022745226
0.10486801	0.072418414	0.0015258739	0.00022745226
0.10506494	0.071396895	0.0014979424	0.00022745512
0.10526188	0.064587973	0.0013576368	0.00022745226
0.10545882	0.066248879	0.001396183	0.00022744617
0.10565575	0.077536553	0.0016268592	0.00022745226
0.10585269	0.082593247	0.0017354898	0.00022745226
0.10604962	0.080388695	0.0016843488	0.00022745512
0.10624656	0.092477873	0.0019399403	0.00022744617
0.10644349	0.083406888	0.0017469128	0.00022744617
0.10664043	0.084544256	0.0017690324	0.00022745226
0.10683736	0.08536046	0.0017901395	0.00022744617
0.1070343	0.086267605	0.0018047781	0.00022744904
0.10723124	0.10668999	0.0022256998	0.00022744617
0.10742817	0.093392074	0.0019552875	0.00022744617
0.1076251	0.105423	0.0021907447	0.00022744617
0.10782204	0.10725275	0.0022436006	0.00022744617
0.10801897	0.11149978	0.0023265637	0.00022744904
0.10821591	0.098905906	0.0020641456	0.00022744617
0.10841285	0.1146469	0.00238836	0.00022744617
0.10860978	0.099956729	0.0020741643	0.00022744009
0.10880671	0.085601404	0.0017886841	0.00022744009
0.10900365	0.104877	0.0021735232	0.00022744904
0.10920059	0.099870302	0.0020713962	0.00022744009
0.10939752	0.099349238	0.0020641438	0.00022744009
0.10959446	0.099352054	0.002059923	0.00022744009
0.10979139	0.089487404	0.0018603853	0.00022744009
0.10998832	0.087869696	0.001814631	0.00022744296
0.11018527	0.10090556	0.0020906678	0.00022744009
0.1103822	0.10814304	0.002239685	0.00022744009
0.11057913	0.10515022	0.0021737344	0.00022743401
0.11077607	0.11790017	0.002440904	0.00022744009
0.110973	0.11584327	0.0023859493	0.00022743687
0.11116994	0.11457888	0.0023645202	0.00022743401
0.11136688	0.13404711	0.0027691568	0.00022743401
0.11156381	0.12122501	0.0024953028	0.00022743401
0.11176074	0.13547009	0.0027955314	0.00022743401
0.11195768	0.14206955	0.0029211354	0.00022744296
0.11215462	0.15647712	0.0032309273	0.00022743401
0.11235155	0.1786927	0.0036767137	0.00022743401
0.11254849	0.18573238	0.0038115883	0.00022743401
0.11274542	0.21591872	0.0044381875	0.00022743401
0.11294235	0.2235893	0.0046005514	0.00022743687
0.11313929	0.22471434	0.0046179122	0.00022743401
0.11333623	0.2660512	0.0054452983	0.00022743401
0.11353316	0.27526426	0.0056556221	0.00022742792
0.1137301	0.28487396	0.0058343825	0.00022743401
0.11392703	0.30543932	0.0062430729	0.00022743079
0.11412397	0.30155396	0.0061748479	0.00022742792
0.1143209	0.30306852	0.0062089241	0.00022742792
0.11451784	0.31938049	0.006529605	0.00022742792
0.11471477	0.33319345	0.0068208766	0.00022742792
0.11491171	0.3711682	0.0075499099	0.00022743079
0.11510865	0.40400669	0.0082490183	0.00022742792
0.11530558	0.44213155	0.0090163946	0.00022742792
0.11550251	0.48766208	0.0099683814	0.00022742792
0.11569945	0.52548695	0.010692785	0.00022742792
0.11589638	0.60653704	0.012332286	0.00022743079
0.11609332	0.69036794	0.014031544	0.00022742792
0.11629026	0.83567882	0.016996253	0.00022742792
0.11648719	0.99710625	0.020267578	0.00022742184
0.11668412	1.318332	0.026781598	0.00022742184
0.11688106	1.7518641	0.035648391	0.00022742471
0.117078	2.3157895	0.046949875	0.00022742184
0.11727493	3.2603357	0.065952174	0.00022742184
0.11747187	4.4842405	0.090711281	0.00022742184
0.1176688	6.2480526	0.12649558	0.00022742184
0.11786573	8.1835804	0.16619463	0.00022742471
0.11806267	10.46223	0.21138543	0.00022742184
0.11825961	12.783285	0.25870672	0.00022742184
0.11845654	14.791971	0.29784158	0.00022742184
0.11865348	16.365486	0.33013079	0.00022742184
0.11885041	17.400246	0.35215849	0.00022741863
0.11904735	17.755466	0.35723537	0.00022741576
0.11924428	17.515053	0.35326302	0.00022741576
0.11944122	16.556635	0.33298805	0.00022741576
0.11963815	15.339968	0.30914634	0.00022741576
0.11983509	14.046204	0.28153393	0.00022741863
0.12003203	12.459208	0.25037855	0.00022741576
0.12022896	11.193011	0.22561516	0.00022741576
0.12042589	9.7773275	0.1967157	0.00022741576
0.12062283	8.6617231	0.17339148	0.00022741576
0.12081976	7.3152828	0.14649302	0.00022741863
0.1210167	6.1296	0.1225737	0.00022741576
0.12121364	5.1712441	0.10390677	0.00022740968
0.12141057	4.1241517	0.082383752	0.00022740968
0.1216075	3.2948256	0.065973572	0.00022741576
0.12180444	2.5417993	0.050701447	0.00022741254
0.12200138	1.9533678	0.038986955	0.00022740968
0.12219831	1.5023961	0.030016067	0.00022741576
0.12239525	1.190495	0.02368493	0.00022741576
0.12259218	0.88453853	0.017674472	0.00022740968
0.12278911	0.73497814	0.014656574	0.00022741254
0.12298606	0.65289915	0.013006518	0.00022740968
0.12318299	0.54473478	0.010833742	0.00022740968
0.12337992	0.45272657	0.0089624263	0.00022740968
0.12357686	0.42562476	0.0084724119	0.00022740968
0.12377379	0.3634927	0.0072206953	0.00022740646
0.12397073	0.32767469	0.0065063043	0.00022740968
0.12416767	0.29693636	0.0058804983	0.00022740359
0.1243646	0.28644201	0.0056656837	0.00022740359
0.12456153	0.25670347	0.0050929971	0.00022740359
0.12475847	0.2468652	0.0048825634	0.00022740646
0.12495541	0.20779221	0.0041178409	0.00022739463
0.12515233	0.19859265	0.0039221868	0.00022740323
0.12534928	0.19657454	0.0038741047	0.00022739751
0.12554622	0.17755182	0.0035068223	0.00022739751
0.12574315	0.15934707	0.0031371352	0.00022739751
0.12594008	0.16451739	0.0032479367	0.00022739751
0.12613702	0.14457831	0.002846167	0.00022740968
0.12633395	0.14424951	0.0028440082	0.00022740968
0.12653089	0.14136328	0.0027780014	0.00022739751
0.12672782	0.12867078	0.0025249445	0.00022739751
0.12692475	0.13084112	0.0025776841	0.00022739751
0.12712169	0.11830015	0.002310395	0.00022740323
0.12731864	0.12013997	0.0023648068	0.00022739751
0.12751557	0.10465564	0.0020486158	0.00022739751
0.1277125	0.10653846	0.0020852259	0.00022739751
0.12790944	0.099266127	0.001946885	0.00022739751
0.12810637	0.096501343	0.001888352	0.00022739751
0.1283033	0.10885397	0.0021269748	0.00022739751
0.12850024	0.08815638	0.0017220206	0.00022739751
0.12869717	0.096749522	0.0018877533	0.00022738535
0.12889411	0.092201307	0.0018031541	0.00022739751
0.12909104	0.098896921	0.0019245395	0.00022740323
0.12928799	0.077837422	0.0015201508	0.00022739751
0.12948492	0.080333456	0.0015596894	0.00022739751
0.12968186	0.075659148	0.0014749836	0.00022738535
0.12987879	0.087204874	0.001697531	0.00022738535
0.13007572	0.077563375	0.0015047786	0.00022738535
0.13027266	0.077625573	0.0015102917	0.00022738535
0.13046959	0.072184429	0.00139961	0.00022738535
0.13066652	0.080394387	0.0015618136	0.00022738535
0.13086346	0.072967865	0.0014148063	0.00022739751
0.13106039	0.059264816	0.0011439169	0.00022740323
0.13125734	0.063498102	0.0012342094	0.00022738535
0.13145427	0.074004509	0.0014303774	0.00022738535
0.13165121	0.065536723	0.0012677606	0.00022738535
0.13184814	0.058448859	0.0011275684	0.00022738535
0.13204508	0.063015752	0.0012162135	0.00022738535
0.13224201	0.059667673	0.0011555554	0.00022738535
0.13243894	0.060164426	0.0011591493	0.00022738535
0.13263588	0.061475411	0.0011829728	0.00022738535
0.13283281	0.065445028	0.0012616743	0.00022738535
0.13302974	0.055014972	0.0010606217	0.00022739106
0.13322669	0.052985076	0.0010196175	0.00022738535
0.13342363	0.064492218	0.0012376114	0.00022738535
0.13362056	0.064611956	0.0012413902	0.00022738535
0.13381749	0.064852774	0.0012481305	0.00022737318
0.13401443	0.059151787	0.0011372613	0.00022737318
0.13421136	0.053061225	0.0010179165	0.00022738535
0.1344083	0.054900516	0.0010499117	0.00022737318
0.13460523	0.069475241	0.0013316514	0.00022737318
0.13480216	0.063197024	0.0012146997	0.00022737318
0.1349991	0.062962964	0.0012078726	0.0002273789
0.13519605	0.062750824	0.0011946524	0.00022737318
0.13539298	0.058867086	0.0011290148	0.00022737318
0.13558991	0.056410257	0.0010760465	0.00022737318
0.13578685	0.057699375	0.0011025809	0.00022737318
0.13598378	0.061149761	0.0011660345	0.00022737318
0.13618071	0.060382918	0.001154625	0.00022737318
0.13637765	0.054192603	0.0010333958	0.00022737318
0.13657458	0.056265984	0.001071693	0.00022737318
0.13677152	0.055029154	0.0010466167	0.00022737318
0.13696845	0.059593022	0.0011319132	0.00022737318
0.13716538	0.062066447	0.0011822047	0.0002273789
0.13736233	0.059275523	0.0011301183	0.00022737318
0.13755926	0.056358382	0.001067436	0.00022737318
0.1377562	0.048434086	0.00092043594	0.00022737318
0.13795313	0.052249637	0.00099141628	0.00022736102
0.13815007	0.050920911	0.00096388551	0.00022736102
0.138347	0.053662073	0.0010180689	0.00022737318
0.13854393	0.042805754	0.00080783555	0.00022737318
0.13874087	0.048	0.00091133034	0.00022736102
0.1389378	0.055595666	0.0010521942	0.00022736102
0.13913473	0.045861699	0.00086427282	0.00022736673
0.13933168	0.061826024	0.0011682579	0.00022737318
0.13952862	0.059605028	0.0011253074	0.00022737318
0.13972555	0.052688953	0.0010004628	0.00022736102
0.13992248	0.05274412	0.00099228311	0.00022736102
0.14011942	0.045894586	0.00086541584	0.00022736102
0.14031635	0.049356222	0.00092984567	0.00022737318
0.14051329	0.056011416	0.0010544186	0.00022736102
0.14071022	0.049515609	0.00093445292	0.00022736102
0.14090715	0.04039688	0.00075694529	0.00022736102
0.14110409	0.048554089	0.00091350893	0.00022736673
0.14130104	0.04610436	0.00086805655	0.00022736102
0.14149797	0.043586109	0.0008170678	0.00022736102
0.1416949	0.054274566	0.0010186268	0.00022734885
0.14189184	0.04770318	0.00089324842	0.00022736102
0.14208877	0.051071428	0.00096166617	0.00022736102
0.1422857	0.051400214	0.00096425519	0.00022736102
0.14248264	0.06388206	0.0011932402	0.00022736102
0.14267957	0.062411349	0.0011717192	0.00022736102
0.14287651	0.044639718	0.0008332369	0.00022736102
0.14307344	0.052370843	0.00098136032	0.00022735457
0.14327039	0.048489109	0.00090549473	0.00022736102
0.14346732	0.050668545	0.00094698241	0.00022734885
0.14366426	0.048087049	0.00089743722	0.00022734885
0.14386119	0.047034048	0.00087720505	0.00022736102
0.14405812	0.050437827	0.00094042951	0.00022734885
0.14425506	0.053017091	0.00098663196	0.00022734885
0.14445199	0.044545773	0.00083039969	0.00022734885
0.14464892	0.048087049	0.00089738902	0.00022734885
0.14484586	0.045185957	0.00083887845	0.00022734885
0.14504279	0.046373781	0.00086242595	0.00022735457
0.14523974	0.046993781	0.00087025255	0.00022734885
0.14543667	0.046299543	0.00086362875	0.00022733668
0.14563361	0.046164528	0.00085620373	0.00022734885
0.14583054	0.049356967	0.00091669342	0.00022734885
0.14602748	0.050501555	0.00093570224	0.00022734885
0.14622441	0.049151957	0.00091080501	0.00022733668
0.14642134	0.044920526	0.00083159609	0.00022734885
0.14661828	0.042699724	0.00078909507	0.00022733668
0.14681521	0.044714037	0.00082883274	0.00022733668
0.14701214	0.042428423	0.00078467594	0.0002273424
0.14720909	0.047537033	0.00087881455	0.00022733668
0.14740603	0.052740436	0.00097573968	0.00022733668
0.14760296	0.039850134	0.00073220686	0.00022733668
0.14779989	0.04443679	0.00082133419	0.00022733668
0.14799683	0.047537033	0.00087872153	0.00022733668
0.14819376	0.044642858	0.00082414236	0.00022733668
0.1483907	0.042793564	0.00078834913	0.00022733668
0.14858763	0.03539823	0.00064972369	0.00022733668
0.14878456	0.040879425	0.00075440062	0.00022733668
0.1489815	0.045084745	0.0008268556	0.0002273424
0.14917845	0.040545143	0.00074489968	0.00022733668
0.14937538	0.048772167	0.00089727662	0.00022733668
0.14957231	0.045716222	0.00083797204	0.00022733668
0.14976925	0.050000001	0.00092210091	0.00022733668
0.14996618	0.04684867	0.00085658795	0.00022733668
0.15016311	0.043389831	0.000795439	0.00022732452
0.15036005	0.050663039	0.00093063503	0.00022732452
0.15055698	0.042789757	0.00078212179	0.00022733668
0.15075392	0.047586676	0.00087398232	0.00022733668
0.15095085	0.044280443	0.00080760906	0.00022733024
0.1511478	0.044459414	0.00081241672	0.00022732452
0.15134473	0.045992561	0.0008423109	0.00022733668
0.15154167	0.037571285	0.00068451156	0.00022732452
0.1517386	0.043948613	0.00080460659	0.00022732452
0.15193553	0.045210984	0.00082407205	0.00022732452
0.15213247	0.048067227	0.00087771827	0.00022733668
0.1523294	0.04726785	0.00086185901	0.00022732452
0.15252633	0.047317561	0.00086054823	0.00022732452
0.15272327	0.044831049	0.00081657071	0.00022732452
0.1529202	0.044711377	0.00081339438	0.00022733024
0.15311715	0.04158283	0.00075823505	0.00022732452
0.15331408	0.043868396	0.00079645362	0.00022732452
0.15351102	0.037898935	0.00068777235	0.00022732452
0.15370795	0.046589017	0.0008464214	0.00022731235
0.15390489	0.051913477	0.00094358734	0.00022732452
0.15410182	0.051935162	0.00094150001	0.00022732452
0.15429875	0.046843853	0.00085041672	0.00022732452
0.15449569	0.056440905	0.0010246944	0.00022731235
0.15469262	0.046657842	0.00084535591	0.00022731235
0.15488955	0.053689066	0.00097089878	0.00022731809
0.1550865	0.048748352	0.00088118849	0.00022732452
0.15528344	0.04473161	0.00081081939	0.00022731235
0.15548037	0.038092084	0.00068989064	0.00022731235
0.1556773	0.040983606	0.00073895691	0.00022731235
0.15587424	0.038879737	0.00070255221	0.00022731235
0.15607117	0.032310706	0.00058055646	0.00022731235
0.1562681	0.039564788	0.00071507768	0.00022731235
0.15646504	0.046649147	0.00084220798	0.00022732452
0.15666197	0.039895356	0.00071811333	0.00022731235
0.15685891	0.040863026	0.00073503249	0.00022731809
0.15705585	0.04339315	0.00078004162	0.00022731235
0.15725279	0.043549445	0.00078457373	0.00022731235
0.15744972	0.039336801	0.00070570846	0.00022731235
0.15764666	0.04264323	0.00076597469	0.00022731235
0.15784359	0.043606557	0.0007861178	0.00022731235
0.15804052	0.046368353	0.00083163515	0.00022731235
0.15823746	0.046594981	0.00083774026	0.00022731235
0.15843439	0.039600771	0.0007071225	0.00022731235
0.15863132	0.03534371	0.00063323602	0.00022730019
0.15882826	0.037785016	0.00067875511	0.00022731809
0.15902521	0.044925664	0.00080426061	0.00022730019
0.15922214	0.041464206	0.00074275298	0.00022730019
0.15941907	0.040410519	0.00072024745	0.00022731235
0.15961601	0.041761089	0.00074808986	0.00022730019
0.15981294	0.041532516	0.00074186589	0.00022730019
0.16000988	0.041210562	0.00073599262	0.00022730019
0.16020681	0.035426732	0.00063218345	0.00022730019
0.16040374	0.034947097	0.00062255305	0.00022730019
0.16060068	0.038039975	0.0006794678	0.00022730019
0.16079761	0.041467305	0.0007371651	0.00022730592
0.16099456	0.038277511	0.00068027002	0.00022730019
0.16119149	0.034438364	0.00061482232	0.00022730019
0.16138843	0.03773585	0.00067167589	0.00022730019
0.16158536	0.034924705	0.00062174298	0.00022730019
0.16178229	0.034318399	0.00060838182	0.00022728802
0.16197923	0.042118698	0.00074879982	0.00022728802
0.16217616	0.042911634	0.00076128839	0.00022728802
0.1623731	0.041388094	0.00073518534	0.00022728802
0.16257003	0.040304665	0.0007142633	0.00022728802
0.16276696	0.046060991	0.00081730168	0.00022730592
0.16296391	0.036531132	0.00064742268	0.00022728802
0.16316085	0.034799114	0.00061561115	0.00022730019
0.16335778	0.042708002	0.00075608492	0.00022728802
0.16355471	0.036243305	0.00064007903	0.00022728802
0.16375165	0.044222079	0.00079096586	0.00022728802
0.16394858	0.034990191	0.00062927144	0.00022728802
0.16414551	0.046359777	0.00083379867	0.00022728802
0.16434245	0.047257107	0.00085545122	0.00022728802
0.16453938	0.052526597	0.00095423096	0.00022728802
0.16473632	0.042766456	0.00077821309	0.00022729376
0.16493326	0.031671159	0.00057780981	0.00022728802
0.1651302	0.038577657	0.00070301816	0.00022727586
0.16532713	0.038987689	0.00071734603	0.00022728802
0.16552407	0.036560595	0.00066909136	0.00022727586
0.165721	0.039661016	0.0007266248	0.00022728802
0.16591793	0.04016478	0.00074045965	0.00022727586
0.16611487	0.044566337	0.00082128833	0.00022727586
0.1663118	0.040624999	0.00075289054	0.00022728802
0.16650873	0.039532486	0.00072922662	0.00022728802
0.16670567	0.034102652	0.00062926224	0.00022728159
0.16690262	0.045154568	0.00083800434	0.00022727586
0.16709955	0.044235457	0.00082178816	0.00022727586
0.16729648	0.038623594	0.00071960728	0.00022727586
0.16749342	0.040389974	0.00074975722	0.00022727586
0.16769035	0.036376357	0.00067639904	0.00022727586
0.16788729	0.042725988	0.00079864002	0.00022727586
0.16808422	0.048331015	0.0008968648	0.00022727586
0.16828115	0.040736806	0.00076274766	0.00022727586
0.16847809	0.042149629	0.00078574312	0.00022726369
0.16867502	0.039756447	0.00074840256	0.00022728159
0.16887197	0.025186237	0.00047034057	0.00022727586
0.1690689	0.034957629	0.00065327901	0.00022726369
0.16926584	0.040867094	0.00076623453	0.00022727586
0.16946277	0.041666668	0.00078249827	0.00022727586
0.1696597	0.039554115	0.00074614584	0.00022726369
0.16985664	0.038118988	0.0007152289	0.00022726369
0.17005357	0.039299749	0.00073908246	0.00022727586
0.17025051	0.031620555	0.00059530727	0.00022726369
0.17044744	0.040157761	0.00075628585	0.00022726369
0.17064437	0.032432433	0.00061166205	0.00022726943
0.17084132	0.038876891	0.00073368126	0.00022727586
0.17103826	0.032422587	0.00061483402	0.00022726369
0.17123519	0.043431055	0.00082271558	0.00022726369
0.17143212	0.035649981	0.00067278492	0.00022726369
0.17162906	0.039087947	0.00073953648	0.00022726369
0.17182599	0.039696861	0.00074993819	0.00022726369
0.17202292	0.045287188	0.00086485082	0.00022726369
0.17221986	0.040290382	0.00076365686	0.00022726369
0.17241679	0.031352535	0.00059459783	0.00022726369
0.17261373	0.043018594	0.00081738771	0.00022725726
0.17281067	0.034947217	0.0006630561	0.00022726369
0.17300761	0.041085839	0.00078284676	0.00022726369
0.17320454	0.043731779	0.0008305771	0.00022725153
0.17340147	0.036189068	0.00069119886	0.00022725153
0.17359841	0.038702544	0.00073915935	0.00022725153
0.17379534	0.045538008	0.00086839165	0.00022726369
0.17399228	0.042904291	0.00081768434	0.00022726369
0.17418921	0.042521995	0.00081008865	0.00022725153
0.17438614	0.041682173	0.00079982547	0.00022725153
0.17458308	0.036873158	0.0007037074	0.00022725726
0.17478003	0.039244723	0.00075081561	0.00022725153
0.17497696	0.032902032	0.00062836288	0.00022725153
0.17517389	0.030124908	0.00057302898	0.00022725153
0.17537083	0.0295991	0.00056875532	0.00022723936
0.17556776	0.029911373	0.00057072256	0.00022723936
0.17576469	0.039120715	0.00075069058	0.00022723936
0.17596163	0.039611362	0.0007613629	0.00022725153
0.17615856	0.035250463	0.00067458244	0.00022725153
0.1763555	0.042054337	0.00080707774	0.00022725153
0.17655243	0.040460281	0.00077522756	0.00022724509
0.17674938	0.039444026	0.00076043559	0.00022723936
0.17694631	0.036370452	0.00070045749	0.00022723936
0.17714325	0.03815937	0.00073380279	0.00022725153
0.17734018	0.037176117	0.00071622949	0.00022723936
0.17753711	0.03198215	0.00061268464	0.00022723936
0.17773405	0.037565742	0.00072428846	0.00022723936
0.17793098	0.039622642	0.00076539663	0.00022723936
0.17812791	0.034146342	0.00065752509	0.00022723936
0.17832485	0.037608124	0.00072492776	0.00022723936
0.17852178	0.031990968	0.00061682361	0.00022724509
0.17871873	0.036995094	0.00071464793	0.00022723936
0.17891566	0.031226486	0.00060142868	0.00022723936
0.1791126	0.0355119	0.00068566151	0.00022722721
0.17930953	0.042657606	0.00082450843	0.00022723936
0.17950647	0.037149355	0.00071912311	0.00022723936
0.1797034	0.037807185	0.00073061767	0.00022723936
0.17990033	0.041116558	0.00079416786	0.00022723936
0.18009727	0.039543726	0.00076665008	0.00022722721
0.1802942	0.043165468	0.00083582947	0.00022722721
0.18049113	0.041714504	0.00081155694	0.00022723294
0.18068808	0.042440318	0.00082168257	0.00022722721
0.18088502	0.03751421	0.00072579843	0.00022722721
0.18108195	0.036585364	0.0007099135	0.00022722721
0.18127888	0.044469785	0.00086278573	0.00022722721
0.18147582	0.038549617	0.00074908917	0.00022722721
0.18167275	0.040591806	0.00078629859	0.00022722721
0.18186969	0.040996168	0.00079829007	0.00022722721
0.18206662	0.03719325	0.00072428596	0.00022722721
0.18226355	0.039364118	0.00076150335	0.00022721505
0.18246049	0.032220945	0.00062677835	0.00022723294
0.18265744	0.037800688	0.00073397747	0.00022721505
0.18285437	0.042659491	0.00083179725	0.00022722721
0.1830513	0.042323969	0.0008259571	0.00022722721
0.18324824	0.04152381	0.00080627203	0.00022721505
0.18344517	0.040737893	0.00079379027	0.00022721505
0.1836421	0.030674847	0.00059644133	0.00022721505
0.18383904	0.03846154	0.00075004942	0.00022721505
0.18403597	0.033051498	0.00064384891	0.00022721505
0.18423291	0.037322048	0.00072773872	0.00022721505
0.18442984	0.041069351	0.00080415048	0.00022722078
0.18462679	0.041794479	0.00081396149	0.00022721505
0.18482372	0.033937525	0.00066175795	0.00022721505
0.18502066	0.042275172	0.00082328828	0.00022721505
0.18521759	0.04021655	0.00078637566	0.00022721505
0.18541452	0.03950426	0.00077324163	0.00022721505
0.18561146	0.038179714	0.00074543088	0.00022721505
0.18580839	0.041249037	0.00080583052	0.00022721505
0.18600532	0.030197445	0.00059006613	0.00022720288
0.18620226	0.038028717	0.00074473192	0.00022721505
0.18639919	0.042215336	0.00082649954	0.00022722078
0.18659614	0.042248063	0.00082774245	0.00022720288
0.18679307	0.04524181	0.00088898523	0.00022720288
0.18699001	0.044066485	0.00086200499	0.00022720288
0.18718694	0.036950603	0.00072446332	0.00022720288
0.18738388	0.046850998	0.00091328297	0.00022720288
0.18758081	0.034131031	0.00067100406	0.00022721505
0.18777774	0.043917608	0.00086131255	0.00022720288
0.18797468	0.042056076	0.00082571956	0.00022720288
0.18817161	0.048713952	0.00095719617	0.00022719071
0.18836854	0.036764707	0.00071908301	0.00022720861
0.18856549	0.035405193	0.00069836772	0.00022719071
0.18876243	0.033865318	0.00066389394	0.00022720288
0.18895936	0.031578947	0.00061901944	0.00022720288
0.18915629	0.036342323	0.00071393314	0.00022719071
0.18935323	0.038656775	0.00075929076	0.00022719071
0.18955016	0.038446449	0.00075719779	0.00022720288
0.1897471	0.04508356	0.0008843909	0.00022719071
0.18994403	0.036384977	0.00071460399	0.00022720288
0.19014096	0.04253643	0.00083954469	0.00022719071
0.1903379	0.03814714	0.00074671401	0.00022719646
0.19053484	0.037810162	0.00074594637	0.00022719071
0.19073178	0.031152649	0.00061052956	0.00022719071
0.19092871	0.032258064	0.0006352546	0.00022719071
0.19112565	0.024901185	0.00049096294	0.00022719071
0.19132258	0.03858145	0.0007568376	0.00022719071
0.19151951	0.040567152	0.00080033561	0.00022719071
0.19171645	0.033778477	0.00066502829	0.00022719071
0.19191338	0.034265459	0.00067560625	0.00022717856
0.19211031	0.028235294	0.00055481109	0.00022719071
0.19230725	0.038476638	0.00075801002	0.00022719646
0.1925042	0.036919411	0.00073109346	0.00022719071
0.19270113	0.028717546	0.00056556758	0.00022719071
0.19289806	0.032690037	0.00064449292	0.00022719071
0.193095	0.03877791	0.00076286297	0.00022717856
0.19329193	0.037713379	0.00074726576	0.00022719071
0.19348887	0.035601266	0.00070347398	0.00022717856
0.1936858	0.036177743	0.00071244774	0.00022717856
0.19388273	0.032359906	0.00063807302	0.00022717856
0.19407967	0.037183546	0.00073490018	0.00022717856
0.1942766	0.028298127	0.00056061399	0.0002271843
0.19447355	0.042644758	0.00083921547	0.00022717856
0.19467048	0.038446292	0.00076119928	0.00022717856
0.19486742	0.038370252	0.00075877865	0.0002271664
0.19506435	0.036948748	0.00073187944	0.0002271664
0.19526128	0.039489429	0.00078452477	0.0002271664
0.19545822	0.030943988	0.00060796109	0.0002271664
0.19565515	0.035642773	0.00070877274	0.0002271664
0.19585209	0.026984127	0.00053332391	0.0002271664
0.19604902	0.026128266	0.00051529548	0.0002271664
0.19624595	0.029482072	0.00058415945	0.00022717213
0.1964429	0.029156817	0.00057441148	0.00022717856
0.19663984	0.036858976	0.00073337025	0.0002271664
0.19683677	0.036744371	0.00072572951	0.0002271664
0.1970337	0.028354632	0.00056252081	0.0002271664
0.19723064	0.038537942	0.00076318358	0.0002271664
0.19742757	0.030976966	0.00061265513	0.0002271664
0.1976245	0.03773585	0.00075030234	0.00022715423
0.19782144	0.036025338	0.00071184832	0.0002271664
0.19801837	0.044728436	0.00088924437	0.0002271664
0.19821531	0.033905067	0.00067272718	0.00022715998
0.19841225	0.040207006	0.00079720817	0.0002271664
0.19860919	0.044835869	0.00089237868	0.00022715423
0.19880612	0.043202538	0.00085566356	0.00022715423
0.19900306	0.034579813	0.00068921392	0.00022715423
0.19919999	0.033107299	0.00065687363	0.00022715423
0.19939692	0.031474102	0.00062355137	0.00022715423
0.19959386	0.035483871	0.00070731912	0.0002271664
0.19979079	0.037420381	0.00074193359	0.00022715423
0.19998772	0.033667333	0.00066974672	0.00022715423
0.20018466	0.038277511	0.00075990468	0.00022715998
0.20038161	0.041013271	0.00081765524	0.00022715423
0.20057854	0.039215688	0.00078012131	0.00022715423
0.20077547	0.03435877	0.00068233465	0.00022715423
0.20097241	0.041079339	0.00081995095	0.00022715423
0.20116934	0.037140574	0.00073767349	0.00022715423
0.20136628	0.034205232	0.00068177737	0.00022714208
0.20156321	0.050440352	0.0010043774	0.00022715423
0.20176014	0.037484884	0.00074795645	0.00022714208
0.20195708	0.040032025	0.00079557439	0.00022715423
0.20215401	0.0433213	0.00086296594	0.00022715998
0.20235096	0.033024568	0.00065773563	0.00022714208
0.20254789	0.040016007	0.00079558045	0.00022714208
0.20274483	0.037728194	0.00075534004	0.00022714208
0.20294176	0.046818726	0.00093198125	0.00022714208
0.20313869	0.043249797	0.00086456235	0.00022714208
0.20333563	0.035555556	0.00071039336	0.00022714208
0.20353256	0.028673835	0.00056812231	0.00022712992
0.2037295	0.039398864	0.0007894978	0.00022712992
0.20392643	0.039247096	0.0007808943	0.00022714208
0.20412336	0.037743505	0.00075588847	0.00022714782
0.20432031	0.035066504	0.00069953216	0.00022714208
0.20451725	0.046511628	0.00092681812	0.00022714208
0.20471418	0.045085296	0.0009039783	0.00022712992
0.20491111	0.049580168	0.00098720833	0.00022714208
0.20510805	0.043071922	0.00086368626	0.00022712992
0.20530498	0.049676899	0.00099321583	0.00022712992
0.20550191	0.064231232	0.0012822142	0.00022712992
0.20569885	0.068979591	0.0013880874	0.00022712992
0.20589578	0.068965517	0.0013762406	0.00022712992
0.20609272	0.068839103	0.0013843857	0.00022713565
0.20628966	0.081015721	0.0016213694	0.00022712992
0.2064866	0.06774848	0.0013594136	0.00022711777
0.20668353	0.075203255	0.0015111143	0.00022712992
0.20688047	0.075342469	0.0015076039	0.00022712992
0.2070774	0.072528362	0.001455055	0.00022711777
0.20727433	0.076117598	0.0015228712	0.00022711777
0.20747127	0.067617111	0.0013597969	0.00022711777
0.2076682	0.070674248	0.0014194553	0.00022712992
0.20786513	0.047696039	0.00095372618	0.00022712992
0.20806207	0.053338762	0.0010715722	0.0002271235
0.20825902	0.047234558	0.00094421773	0.00022711777
0.20845595	0.042379789	0.0008505194	0.00022711777
0.20865288	0.051717173	0.0010346749	0.00022711777
0.20884982	0.041241322	0.00082825369	0.00022711777
0.20904675	0.042310823	0.00084884075	0.00022711777
0.20924369	0.048275862	0.00096776005	0.0002271056
0.20944062	0.053057916	0.0010634315	0.00022711777
0.20963755	0.047020674	0.00094165257	0.00022711777
0.20983449	0.038240131	0.00077067787	0.00022711777
0.21003142	0.036525972	0.00073097157	0.00022711133
0.21022837	0.042752445	0.00085818052	0.00022711777
0.2104253	0.037489813	0.00075210049	0.00022711777
0.21062224	0.030229745	0.00060242403	0.0002271056
0.21081917	0.02843016	0.00057252339	0.0002271056
0.2110161	0.035222672	0.00070411671	0.0002271056
0.21121304	0.020358305	0.00040658523	0.0002271056
0.21140997	0.02894415	0.00057957263	0.0002271056
0.2116069	0.026960785	0.00054024841	0.0002271056
0.21180384	0.036839951	0.00074088137	0.0002271056
0.21200077	0.02989899	0.0005965961	0.00022711133
0.21219772	0.035802469	0.00072176929	0.00022709343
0.21239465	0.038208708	0.00076999835	0.0002271056
0.21259159	0.034524776	0.00069116073	0.0002271056
0.21278852	0.038367346	0.00077036646	0.0002271056
0.21298546	0.035308443	0.00070687971	0.00022709343
0.21318239	0.040429045	0.00081626704	0.00022709343
0.21337932	0.036120132	0.0007227835	0.00022709343
0.21357626	0.031875767	0.00063919532	0.0002271056
0.21377319	0.038794883	0.00078292133	0.0002271056
0.21397012	0.02971103	0.00059392484	0.00022709918
0.21416707	0.028197793	0.00056467199	0.00022709343
0.21436401	0.035466775	0.00071106886	0.00022709343
0.21456094	0.03492194	0.00070292561	0.00022709343
0.21475787	0.033661742	0.00067737629	0.00022708128
0.21495481	0.031058438	0.00062296668	0.00022709343
0.21515174	0.029905776	0.00060034782	0.00022709343
0.21534868	0.036021285	0.00072383013	0.00022708128
0.21554561	0.036640592	0.00073818024	0.00022709343
0.21574254	0.035947714	0.00072161335	0.00022708128
0.21593948	0.035802469	0.00072128617	0.00022709918
0.21613643	0.041050903	0.0008267301	0.00022708128
0.21633336	0.031980321	0.00064277241	0.00022708128
0.21653029	0.030402629	0.00061094132	0.00022708128
0.21672723	0.038351692	0.00076971843	0.00022709343
0.21692416	0.030927835	0.00062352692	0.00022708128
0.21712109	0.038603697	0.00077722932	0.00022708128
0.21731803	0.040246408	0.00081048487	0.00022708128
0.21751496	0.034170441	0.00068826403	0.00022708128
0.2177119	0.040325865	0.00080941844	0.00022708128
0.21790883	0.03531367	0.00071468734	0.00022708702
0.21810578	0.044934642	0.00090302731	0.00022708128
0.21830271	0.038842976	0.00078500749	0.00022708128
0.21849965	0.030041153	0.00060500595	0.00022706912
0.21869658	0.037234042	0.00074834394	0.00022708128
0.21889351	0.037728027	0.0007634745	0.00022706912
0.21909045	0.03768947	0.00075802678	0.00022706912
0.21928738	0.042509288	0.00085866358	0.00022706912
0.21948431	0.039191417	0.00079118542	0.00022706912
0.21968125	0.038224414	0.00077047321	0.00022706912
0.21987818	0.025588114	0.00051518175	0.00022707487
0.22007513	0.029062629	0.00058360578	0.00022706912
0.22027206	0.033181254	0.00067092082	0.00022706912
0.220469	0.031198686	0.00062763283	0.00022706912
0.22066593	0.03642384	0.00073628849	0.00022705697
0.22086287	0.031700287	0.00063859997	0.00022705697
0.2210598	0.038318913	0.000773423	0.00022705697
0.22125673	0.036822509	0.00074435183	0.00022705697
0.22145367	0.037190083	0.00075137615	0.00022705697
0.2216506	0.031818181	0.00064183644	0.00022706912
0.22184753	0.034979425	0.00070476113	0.00022707487
0.22204448	0.038589213	0.00078134768	0.00022705697
0.22224142	0.030115511	0.00060702255	0.00022705697
0.22243835	0.029690722	0.00059802848	0.00022705697
0.22263528	0.029021559	0.00058608083	0.00022705697
0.22283222	0.03412829	0.00068749674	0.00022704482
0.22302915	0.034138218	0.00069170701	0.00022705697
0.22322609	0.031391986	0.00063336443	0.00022704482
0.22342302	0.038224414	0.00077056338	0.00022704482
0.22361995	0.034869239	0.00070573163	0.00022705697
0.22381689	0.033443436	0.00067444221	0.0002270627
0.22401384	0.035490606	0.00072057167	0.00022704482
0.22421077	0.028806584	0.00057970028	0.00022704482
0.2244077	0.041407868	0.00083762332	0.00022704482
0.22460464	0.027049521	0.00054739078	0.00022704482
0.22480157	0.027926078	0.00056137232	0.00022704482
0.2249985	0.029769393	0.00060502649	0.00022704482
0.22519544	0.034016393	0.00068411796	0.00022704482
0.22539237	0.032848231	0.0006651596	0.00022704482
0.22558931	0.038477626	0.0007820251	0.00022704482
0.22578624	0.032284431	0.00064810587	0.00022703838
0.22598319	0.042065807	0.00085381087	0.00022703265
0.22618012	0.03555188	0.0007183844	0.00022704482
0.22637706	0.033905398	0.00068899937	0.00022704482
0.22657399	0.037712391	0.0007635596	0.00022703265
0.22677092	0.038142622	0.00077220233	0.00022703265
0.22696786	0.033582091	0.00067864137	0.00022703265
0.22716479	0.030641822	0.00061805145	0.00022704482
0.22736172	0.029694688	0.00060226431	0.00022703265
0.22755866	0.032231405	0.00065079221	0.00022703265
0.22775559	0.035520267	0.00072137412	0.00022703265
0.22795253	0.033582091	0.00067948131	0.00022703838
0.22814947	0.036544852	0.00073976762	0.00022703265
0.22834641	0.037728027	0.00076338107	0.00022703265
0.22854334	0.037806399	0.00076594867	0.0002270205
0.22874027	0.036569986	0.00074540509	0.00022703265
0.22893721	0.034667768	0.00069942203	0.00022703265
0.22913414	0.037437603	0.00075908069	0.0002270205
0.22933108	0.028654486	0.00057906646	0.0002270205
0.22952801	0.029595666	0.0005993747	0.0002270205
0.22972494	0.03206997	0.00065002736	0.0002270205
0.22992188	0.029850746	0.00060346146	0.00022703838
0.23011883	0.036348268	0.00074194866	0.0002270205
0.23031576	0.029314617	0.00059109437	0.0002270205
0.23051269	0.029962547	0.00060661766	0.0002270205
0.23070963	0.039166667	0.00079502398	0.0002270205
0.23090656	0.029436152	0.00059489452	0.00022700834
0.23110349	0.03397651	0.00069127523	0.00022700834
0.23130043	0.041301627	0.00083854469	0.0002270205
0.23149736	0.027038269	0.0005465225	0.0002270205
0.2316943	0.041771095	0.00084875617	0.0002270205
0.23189123	0.036944792	0.00074796763	0.00022701408
0.23208818	0.03394803	0.00068997929	0.00022700834
0.23228511	0.034138218	0.00069170701	0.00022700834
0.23248205	0.03426661	0.0006955085	0.00022700834
0.23267898	0.028487641	0.0005785196	0.00022700834
0.23287591	0.029509559	0.00059676054	0.00022700834
0.23307285	0.036386449	0.00073910697	0.00022700834
0.23326978	0.034195162	0.00069375249	0.00022700834
0.23346671	0.034641068	0.00070253405	0.00022700834
0.23366365	0.025651809	0.00052124145	0.00022700834
0.23386058	0.028380634	0.0005743769	0.00022701408
0.23405753	0.032204788	0.00064966106	0.00022699618
0.23425446	0.029448885	0.00059895037	0.00022700834
0.2344514	0.03649329	0.0007426634	0.00022699618
0.23464833	0.031341411	0.0006358478	0.00022699618
0.23484527	0.037207358	0.00075537624	0.00022700834
0.2350422	0.028010033	0.00056789338	0.00022700834
0.23523913	0.034859303	0.00070960214	0.00022699618
0.23543607	0.033721898	0.00068330712	0.00022699618
0.235633	0.035117056	0.00071316701	0.00022699618
0.23582993	0.035190616	0.00071551208	0.00022700192
0.23602688	0.032421052	0.00066039298	0.00022698403
0.23622382	0.041684035	0.00084593246	0.00022699618
0.23642075	0.036310516	0.0007369917	0.00022699618
0.23661768	0.041072924	0.00083602348	0.00022698403
0.23681462	0.046296295	0.00094462617	0.00022698403
0.23701155	0.040952779	0.00083218189	0.00022699618
0.23720849	0.035923142	0.00072926836	0.00022698403
0.23740542	0.038623005	0.00078646204	0.00022699618
0.23760235	0.038993713	0.00079357397	0.00022698403
0.23779929	0.044519108	0.00090766663	0.00022698977
0.23799624	0.046327211	0.00094143645	0.00022698403
0.23819317	0.045397226	0.00092566101	0.00022698403
0.2383901	0.037783377	0.00076943025	0.00022698403
0.23858704	0.037285294	0.0007584304	0.00022698403
0.23878397	0.047359597	0.00096454262	0.00022698403
0.2389809	0.038171142	0.00077677617	0.00022697187
0.23917784	0.039932746	0.0008136516	0.00022697187
0.23937477	0.0379107	0.00077303324	0.00022698403
0.23957171	0.038525961	0.00078312424	0.00022697187
0.23976864	0.037531275	0.00076145551	0.00022697762
0.23996559	0.031578947	0.00064332329	0.00022697187
0.24016252	0.037225042	0.00076071883	0.00022697187
0.24035946	0.032381766	0.00066320825	0.00022697187
0.24055639	0.044378698	0.00090711709	0.00022697187
0.24075332	0.038330495	0.00078620546	0.00022697187
0.24095026	0.030030031	0.00061728171	0.00022697187
0.24114719	0.034468085	0.00070644275	0.00022697187
0.24134412	0.035974305	0.00073965586	0.00022697187
0.24154106	0.032786883	0.00067617017	0.00022697187
0.24173799	0.032369442	0.00066763326	0.00022696547
0.24193494	0.030815972	0.00063747237	0.00022697187
0.24213187	0.031841651	0.00065568421	0.00022695972
0.24232881	0.030607782	0.00063518377	0.00022697187
0.24252574	0.029733274	0.00061660982	0.00022695972
0.24272268	0.039737992	0.0008254014	0.00022695972
0.24291961	0.041831791	0.00087297347	0.00022695972
0.24311654	0.028720627	0.0005941455	0.00022695972
0.24331348	0.02532208	0.00052863528	0.00022695972
0.24351041	0.028218694	0.00058772741	0.00022695972
0.24370734	0.033010565	0.00068732095	0.00022696547
0.24390429	0.022686834	0.00047332636	0.00022695972
0.24410123	0.02236136	0.00046786186	0.00022695972
0.24429816	0.026642984	0.00055654463	0.00022694757
0.24449509	0.025125628	0.00053098565	0.00022694757
0.24469203	0.02718894	0.00057764404	0.00022695972
0.24488896	0.028584817	0.00061299448	0.00022694757
0.2450859	0.021156559	0.00045279783	0.00022694757
0.24528283	0.028868906	0.00062215701	0.00022694757
0.24547976	0.023843586	0.00051472918	0.00022694757
0.2456767	0.030317614	0.00065909146	0.0002269533
0.24587364	0.026455026	0.0005744627	0.00022694757
0.24607058	0.028169014	0.00061444461	0.0002269354
0.24626751	0.027616279	0.000601904	0.00022694757
0.24646445	0.02904973	0.00063833193	0.00022694757
0.24666138	0.027027028	0.00059339748	0.00022694757
0.24685831	0.017760238	0.00038843768	0.0002269354
0.24705525	0.031296574	0.00069092138	0.0002269354
0.24725218	0.03145282	0.00069628173	0.0002269354
0.24744911	0.02413273	0.00053439441	0.00022694757
0.24764605	0.031484257	0.00069714693	0.00022694115
0.247843	0.03021148	0.00067109137	0.0002269354
0.24803993	0.029141104	0.0006524456	0.0002269354
0.24823686	0.021527423	0.00048138178	0.0002269354
0.2484338	0.027494909	0.00061393919	0.00022692325
0.24863073	0.019547325	0.00043727123	0.0002269354
0.24882767	0.027777778	0.00062387623	0.00022692325
0.2490246	0.034661148	0.00078195316	0.00022692325
0.24922153	0.038662486	0.00087715336	0.00022692325
0.24941847	0.03840166	0.00086812949	0.00022692325
0.2496154	0.036900368	0.00084014982	0.000226929
0.24981235	0.026399156	0.00059894007	0.00022692965
0.25000927	0.027154047	0.00061351713	0.00022692325
0.2502062	0.036266666	0.00082993903	0.0002269354
0.25040314	0.040783897	0.00093147176	0.0002269111
0.25060007	0.03731747	0.00085974677	0.0002269226
0.25079703	0.028311966	0.00064762501	0.0002269111
0.25099397	0.020956475	0.00047899876	0.0002269111
0.2511909	0.036353771	0.000839555	0.0002269111
0.25138783	0.037156705	0.00085529283	0.0002269111
0.25158477	0.032152589	0.00074352574	0.0002269111
0.2517817	0.036572054	0.00084712921	0.0002269111
0.25197864	0.035616439	0.00082690944	0.0002269111
0.25217557	0.024376731	0.00056586694	0.0002269111
0.2523725	0.029088913	0.00067447056	0.0002269111
0.25256944	0.027793219	0.00064754346	0.0002269111
0.25276637	0.015546918	0.00035793224	0.0002269111
0.2529633	0.027917365	0.00065215479	0.0002268868
0.25316024	0.027027028	0.00063253107	0.0002269111
0.25335717	0.036952816	0.00087199698	0.0002269111
0.25355411	0.027533684	0.00065826357	0.0002269111
0.25375104	0.027677497	0.00067071652	0.0002269111
0.25394797	0.027173912	0.00065983314	0.0002268868
0.25414491	0.03194103	0.0007836296	0.0002269111
0.25434184	0.023402909	0.00057988067	0.0002269111
0.25453877	0.029947916	0.00075493479	0.0002269226
0.25473574	0.031564809	0.00080727792	0.0002268868
0.25493267	0.035422344	0.00091520388	0.0002269111
0.25512961	0.028511822	0.00074154709	0.0002269111
0.25532654	0.031227821	0.00082097162	0.0002269111
0.25552347	0.032774944	0.00087274128	0.0002268868
0.25572041	0.028030302	0.00076015602	0.0002269111
0.25591734	0.036466774	0.0010222398	0.0002269111
0.25611427	0.029234737	0.00084416283	0.0002268868
0.25631121	0.031963471	0.00095006451	0.0002268868
0.25650814	0.023562677	0.00070791692	0.0002268868
0.25670508	0.038722169	0.0011886791	0.0002268868
0.25690201	0.038054969	0.0012186747	0.0002268868
0.25709894	0.030303031	0.00099392817	0.0002268868
0.25729588	0.034238487	0.0011552445	0.0002268868
0.25749281	0.045563549	0.0015555553	0.0002268868
0.25768974	0.038993713	0.0013584014	0.0002268868
0.25788668	0.028460544	0.00099424692	0.0002268868
0.25808361	0.030707611	0.0010893866	0.0002268868
0.25828055	0.025991792	0.00092809158	0.0002268868
0.25847748	0.025751073	0.00093476678	0.00022689829
0.25867444	0.027656477	0.0010187107	0.00022686248
0.25887138	0.021406727	0.00080723758	0.00022686248
0.25906831	0.027777778	0.0010578148	0.00022686248
0.25926524	0.022187004	0.00084710377	0.0002268868
0.25946218	0.018394649	0.0007178075	0.00022686248
0.25965911	0.037351444	0.0015016715	0.0002268868
0.25985605	0.034662046	0.0013965251	0.0002268868
0.26005298	0.036458332	0.0014695765	0.00022686248
0.26024991	0.026223777	0.0010551582	0.00022686248
0.26044685	0.026785715	0.0010892755	0.0002268868
0.26064378	0.024955437	0.0010106001	0.00022686248
0.26084071	0.021582734	0.00087713351	0.00022686248
0.26103765	0.033149172	0.0013746875	0.00022686248
0.26123458	0.016666668	0.00067682768	0.00022686248
0.26143152	0.024528302	0.0010180208	0.0002268868
0.26162845	0.025878003	0.0010671909	0.00022686248
0.26182538	0.021032505	0.00087772688	0.00022686248
0.26202232	0.033268102	0.0014238883	0.00022686248
0.26221925	0.029761905	0.0012759016	0.00022686248
0.26241618	0.051625241	0.0022078403	0.00022684968
0.26261315	0.037698414	0.0016312666	0.00022683818
0.26281008	0.036585364	0.0015940341	0.00022686248
0.26300701	0.030800821	0.0013433357	0.00022686248
0.26320395	0.020120725	0.00085708528	0.00022683818
0.26340088	0.025369979	0.0011180335	0.00022686248
0.26359782	0.025104603	0.0010921557	0.00022683818
0.26379475	0.01923077	0.00083899999	0.00022686248
0.26399168	0.03846154	0.0017296427	0.00022683818
0.26418862	0.039130434	0.0017749927	0.00022683818
0.26438555	0.035794184	0.0016410835	0.00022683818
0.26458248	0.041189931	0.0019170615	0.00022683818
0.26477942	0.038116593	0.0017529503	0.00022683818
0.26497635	0.027972028	0.0012945172	0.00022686248
0.26517329	0.027972028	0.0012945172	0.00022683818
0.26537022	0.029339854	0.0013907003	0.00022683818
0.26556715	0.036057692	0.0017099848	0.00022683818
0.26576409	0.059405942	0.0028969145	0.00022683818
0.26596102	0.025252525	0.0012053899	0.00022683818
0.26615795	0.046632126	0.0023096334	0.00022683818
0.26635489	0.023017902	0.0010988975	0.00022684968
0.26655185	0.021220159	0.001023667	0.00022681388
0.26674879	0.043835618	0.0022246519	0.00022683818
0.26694572	0.035135135	0.001757306	0.00022683818
0.26714265	0.01369863	0.00060924602	0.00022681388
0.26733959	0.01977401	0.00097439275	0.00022681388
0.26753652	0.022857143	0.0011444933	0.00022681388
0.26773345	0.027190333	0.0014111763	0.00022683818
0.26793039	0.020895522	0.0010585383	0.00022683818
0.26812732	0.029585799	0.0015289371	0.00022683818
0.26832426	0.021875	0.001133912	0.00022683818
0.26852119	0.025396826	0.0013406599	0.00022683818
0.26871812	0.022508038	0.0011835413	0.00022683818
0.26891506	0.019292604	0.001000275	0.00022681388
0.26911199	0.030303031	0.0016605959	0.00022683818
0.26930892	0.03691275	0.0020422169	0.00022683818
0.26950586	0.041522492	0.0023425717	0.00022683818
0.26970279	0.024054984	0.0013077739	0.00022681388
0.26989973	0.032608695	0.0018539194	0.00022681388
0.27009666	0.041198503	0.0024084868	0.00022681388
0.27029359	0.034351144	0.0020046784	0.00022684968
0.27049056	0.018315019	0.00099327136	0.00022681388
0.27068749	0.0038910506	0	0.00022681388
0.27088442	0	0	0.00022681388
0.27108136	0.020920502	0.0012129102	0.00022681388
0.27127829	0.042016808	0.0025892269	0.00022681388
0.27147523	0.021276595	0.0014682246	0.00022681388
0.27167216	0	0	0.00022681388
0.27186909	0	0	0.00022681388
0.27206603	0	0	0.00022681388
0.27226296	0	0	0.00022681388
