#   DataFileName=PAL30_60C_WAXS_08172017.tif
#   DataFileType=.tif
#   
#   DataFilePath=E:DATA:PAL30_08262017:
#   
#   Processed on=Wed, Jan 16, 2019,2:41:20 AM
#   Units=Arbitrary
#   SampleThickness=1
#   SampleTransmission=1
#   CorrectionFactor=1
#   SampleMeasurementTime=1
#   EmptyMeasurementTime=1
#   BackgroundMeasTime=1
#   SampleI0=1
#   EmptyI0=1
#   Nika_SampleToDetectorDistacne=1552.1
#   Nika_Wavelength=1.54
#   Nika_XrayEnergy=8.0509
#   Nika_PixelSizeX=0.075
#   Nika_PixelSizeY=0.075
#   Nika_HorizontalTilt=0
#   Nika_VerticalTilt=0
#   Nika_BeamCenterX=1540.3
#   Nika_BeamCenterY=830.17
#   Nika_BeamSizeX=0
#   Nika_BeamCenterY=830.17
#   CalibrationFormula=1*((Sa2D))
#   CurrentMaskFileName=PAL30_30C_WAXS_mask.hdf
#   QvectorMaxNumPnts=1
#   QvectorNumberPoints=1383
#   CircularAverage=1
#   PolarizationCorrection=None
#   UncertainityCalculationMethod=OldNikaMethod

0.0060065244	7	4.7434163	0.00022756745
0.00620346	8.4799995	1.6822208	0.00022756765
0.0064003952	6.2280703	0.82177716	0.00022756765
0.0065973303	7.3000002	0.81487358	0.00022756765
0.0067942655	9.1836739	0.92377251	0.00022756765
0.0069912006	10.859813	1.0365965	0.00022756745
0.0071881362	13.508197	1.1965789	0.00022756727
0.0073850714	14.946565	1.2801642	0.00022756727
0.0075820065	15.048276	1.2281166	0.00022756727
0.0077789417	14.557823	1.1813511	0.00022756745
0.0079758773	13.018988	1.0210041	0.00022756746
0.0081728119	12.030675	0.92938101	0.00022756707
0.0083697475	10.005618	0.73999017	0.00022756671
0.0085666822	9.4041452	0.66800898	0.00022756783
0.0087636178	8.2871799	0.58738923	0.00022756783
0.0089605534	7.4549761	0.50753361	0.00022756746
0.0091574881	6.7074237	0.43942294	0.00022756707
0.0093544237	6.2519999	0.39232886	0.00022756671
0.0095513584	5.4106464	0.33115774	0.00022756707
0.009748294	5.1139708	0.30756381	0.00022756707
0.0099452296	4.8122745	0.28692126	0.00022756595
0.010142164	4.2338128	0.25238633	0.00022756707
0.0103391	4.1986532	0.2420318	0.00022756671
0.010536035	3.7288136	0.21568654	0.00022756707
0.01073297	3.5394738	0.20163836	0.00022756783
0.010929906	3.2508039	0.18315814	0.00022756746
0.01112684	3.2236421	0.18118703	0.00022756783
0.011323776	3.0210843	0.16501223	0.00022756746
0.011520711	2.7682927	0.15184283	0.00022756707
0.011717646	2.5710058	0.13884138	0.00022756707
0.011914582	2.4181287	0.13005902	0.00022756746
0.012111517	2.1884058	0.11729036	0.00022756783
0.012308452	2.1181319	0.1105573	0.00022756671
0.012505387	1.9632769	0.10388729	0.00022756783
0.012702323	1.9417989	0.099450603	0.00022756783
0.012899258	1.9061662	0.098278537	0.00022756671
0.013096193	1.8089005	0.092054784	0.00022756707
0.013293128	1.7365729	0.087406881	0.00022756671
0.013490063	1.564433	0.079058431	0.00022756707
0.013686999	1.4289216	0.070468307	0.00022756707
0.013883934	1.4403893	0.070788018	0.00022756671
0.014080869	1.4186603	0.069174819	0.00022756707
0.014277805	1.2376471	0.05983045	0.00022756671
0.014474739	1.3286052	0.064352781	0.0002275663
0.014671675	1.2302483	0.058244731	0.00022756707
0.014868611	1.1477273	0.05451978	0.00022756671
0.015065545	1.134066	0.053028487	0.0002275663
0.015262481	1.0171673	0.046969291	0.00022756671
0.015459416	1.0835165	0.050661299	0.00022756595
0.01565635	0.97228146	0.044785447	0.00022756707
0.015853286	1	0.045941867	0.00022756554
0.016050221	0.8804124	0.039862715	0.00022756707
0.016247157	0.79757082	0.035793293	0.00022756707
0.016444093	0.81599998	0.036405202	0.00022756483
0.016641026	0.89156628	0.039847303	0.00022756707
0.016837962	0.78957915	0.035226788	0.00022756707
0.017034898	0.7451362	0.032774869	0.00022756554
0.017231833	0.709369	0.03092698	0.00022756554
0.017428769	0.7210626	0.031330772	0.00022756483
0.017625703	0.65420562	0.028207913	0.00022756554
0.017822638	0.60707635	0.026135204	0.00022756554
0.018019574	0.67463237	0.028850151	0.00022756554
0.018216509	0.61313868	0.026119372	0.00022756554
0.018413445	0.58497316	0.024670729	0.00022756483
0.018610379	0.58303887	0.024448765	0.00022756554
0.018807314	0.504363	0.021004861	0.00022756554
0.01900425	0.56499135	0.023469871	0.00022756554
0.019201186	0.59790212	0.024943864	0.00022756554
0.019398121	0.60636514	0.024766887	0.00022756483
0.019595055	0.52711862	0.021650609	0.00022756554
0.019791991	0.50578511	0.020513622	0.00022756554
0.019988926	0.47768596	0.019381415	0.00022756554
0.020185862	0.48202613	0.019439757	0.00022756554
0.020382797	0.49522293	0.019720474	0.00022756483
0.020579731	0.487055	0.019538609	0.00022756403
0.020776667	0.44827586	0.017700214	0.00022756403
0.020973602	0.43505478	0.017169069	0.00022756554
0.021170538	0.43437499	0.017131057	0.00022756403
0.021367474	0.41930619	0.01625309	0.0002275633
0.021564407	0.40712073	0.015981272	0.00022756403
0.021761343	0.367713	0.014183448	0.00022756403
0.021958278	0.44193062	0.017125729	0.00022756403
0.022155214	0.36857563	0.014092326	0.00022756403
0.02235215	0.40261629	0.015314755	0.0002275633
0.022549083	0.38766521	0.014819281	0.00022756403
0.022746019	0.40425533	0.01519735	0.00022756403
0.022942955	0.32281205	0.01219682	0.00022756403
0.02313989	0.38755304	0.014540413	0.00022756403
0.023336826	0.37238494	0.01387435	0.0002275633
0.02353376	0.3628692	0.01357808	0.00022756403
0.023730695	0.3622795	0.013319759	0.00022756403
0.023927631	0.3586207	0.013287158	0.0002275625
0.024124566	0.34182304	0.012487264	0.00022756403
0.024321502	0.34986594	0.012782766	0.00022756179
0.024518436	0.31946307	0.011675637	0.0002275625
0.024715371	0.28985506	0.010496204	0.0002275625
0.024912307	0.31439894	0.011400615	0.0002275625
0.025109243	0.29795396	0.010625335	0.0002275625
0.025306178	0.28201813	0.010120323	0.00022756179
0.025503112	0.29246488	0.010428665	0.0002275625
0.025700048	0.30749682	0.010936915	0.0002275625
0.025896983	0.24936387	0.0088702412	0.0002275625
0.026093919	0.26847291	0.0093957651	0.00022756097
0.026290854	0.26054591	0.0091534201	0.00022756179
0.026487788	0.25731707	0.0089625604	0.0002275625
0.026684724	0.26772615	0.0093394648	0.00022756097
0.026881659	0.24847747	0.0086475508	0.0002275625
0.027078595	0.25178999	0.0086766062	0.00022756097
0.027275531	0.25992781	0.0089956941	0.00022756179
0.027472464	0.24097788	0.0082019484	0.00022756097
0.0276694	0.28486997	0.0097745676	0.00022756097
0.027866336	0.25290024	0.0085950261	0.00022756097
0.028063271	0.27558139	0.0093756421	0.00022756097
0.028260207	0.25641027	0.0087314388	0.00022756026
0.028457141	0.23569024	0.0078757731	0.00022756097
0.028654076	0.21906924	0.0073614907	0.00022756097
0.028851012	0.22818792	0.0076117585	0.00022756097
0.029047947	0.21836506	0.0072893542	0.00022756097
0.029244883	0.22384702	0.0074877804	0.00022756026
0.029441817	0.22657952	0.0074591045	0.00022756097
0.029638752	0.23956044	0.0079227798	0.00022755946
0.029835688	0.21251349	0.0069613671	0.00022756097
0.030032624	0.23225807	0.0075978949	0.00022755946
0.030229559	0.20238096	0.0066409404	0.00022755875
0.030426493	0.21382979	0.0069563612	0.00022755946
0.030623429	0.1799787	0.0058562113	0.00022755946
0.030820364	0.2249742	0.0072091538	0.00022755946
0.0310173	0.21871714	0.0070760823	0.00022755946
0.031214235	0.2313278	0.007432892	0.00022755946
0.031411171	0.2258727	0.0072200201	0.00022755875
0.031608105	0.20062047	0.0064347601	0.00022755571
0.031805038	0.20626895	0.006542549	0.00022756017
0.032001976	0.20222446	0.0064138034	0.00022755875
0.03219891	0.20804021	0.0065785074	0.00022756017
0.032395847	0.17582418	0.00554153	0.00022755875
0.032592781	0.20158888	0.0063368394	0.00022755875
0.032789715	0.19471624	0.0060743187	0.00022756017
0.032986652	0.16650246	0.0052103642	0.00022755571
0.033183586	0.19571568	0.0060918992	0.00022755713
0.033380523	0.18978806	0.0058760177	0.00022755875
0.033577457	0.20809248	0.0064420253	0.00022755571
0.033774391	0.19828407	0.0061081452	0.00022755713
0.033971328	0.17080152	0.0052613518	0.00022755571
0.034168262	0.17029329	0.0052219424	0.00022756017
0.0343652	0.20546654	0.0062934346	0.00022755571
0.034562133	0.19962859	0.0060676555	0.00022755571
0.034759067	0.1716141	0.0052127144	0.00022756017
0.034956004	0.2	0.0060722912	0.00022755571
0.035152938	0.19634703	0.0059186136	0.00022755713
0.035349876	0.19981752	0.0060225162	0.00022755571
0.035546809	0.17967331	0.0053984323	0.00022755571
0.035743743	0.17481884	0.005248317	0.00022755713
0.035940681	0.18116592	0.0054115388	0.00022755571
0.036137614	0.18472469	0.0054926397	0.00022755713
0.036334552	0.1687389	0.005015329	0.00022755266
0.036531486	0.16049382	0.0047526513	0.00022755266
0.036728419	0.19223987	0.0056956909	0.00022755713
0.036925357	0.15565218	0.0045777909	0.00022755571
0.037122291	0.15899219	0.0046730689	0.00022755713
0.037319228	0.15944541	0.0046816384	0.00022755571
0.037516162	0.17387617	0.0050515998	0.00022755266
0.037713096	0.15852614	0.0046281638	0.00022755713
0.037910033	0.17035775	0.0049588871	0.00022755266
0.038106967	0.15351993	0.0044580917	0.00022755409
0.038303904	0.19493671	0.0056513608	0.00022755266
0.038500838	0.17470881	0.0050271139	0.00022755266
0.038697772	0.17768595	0.0050957766	0.00022755409
0.038894709	0.17218544	0.004942365	0.00022755266
0.039091643	0.17369728	0.0049838466	0.00022755409
0.03928858	0.16311476	0.0046576397	0.00022755266
0.039485514	0.17221771	0.004897147	0.00022755266
0.039682448	0.16978067	0.0048274114	0.00022755409
0.039879385	0.16305222	0.0046097212	0.00022755266
0.040076319	0.1736	0.004898692	0.00022755409
0.040273257	0.16934189	0.004786097	0.00022754962
0.04047019	0.15433572	0.0043423194	0.00022754962
0.040667124	0.17712471	0.0049809669	0.00022755409
0.040864062	0.15715402	0.0043833293	0.00022755266
0.041060995	0.16251944	0.0045214985	0.00022755409
0.041257933	0.16302653	0.0045424728	0.00022754962
0.041454867	0.15408561	0.0042874776	0.00022755266
0.0416518	0.16575876	0.0046135732	0.00022755409
0.041848738	0.16946565	0.0046714791	0.00022754962
0.042045671	0.15437262	0.0042467033	0.00022754801
0.042242609	0.18631178	0.0051272837	0.00022754657
0.042439543	0.17691724	0.004864424	0.00022754353
0.042636476	0.15326822	0.0041908477	0.00022754801
0.042833414	0.16114458	0.0044124257	0.00022754657
0.043030348	0.18297237	0.0049902694	0.00022754801
0.043227285	0.15583457	0.004224902	0.00022754353
0.043424219	0.183493	0.004972084	0.00022754353
0.043621153	0.17720588	0.0047954605	0.00022754801
0.04381809	0.17228739	0.0046546813	0.00022754353
0.044015024	0.16898318	0.0045606722	0.00022754495
0.044211961	0.16666667	0.0044765039	0.00022754353
0.044408895	0.16402878	0.004390243	0.00022754353
0.044605829	0.14942528	0.0039951438	0.00022754495
0.044802766	0.1348637	0.0036015501	0.00022754353
0.0449997	0.1748751	0.004663249	0.00022754495
0.045196638	0.17243816	0.0045746271	0.00022754353
0.045393571	0.1858156	0.0049394881	0.00022754353
0.045590505	0.17168885	0.0045354436	0.00022754495
0.045787442	0.14516129	0.003834947	0.00022754048
0.045984376	0.175	0.0046025659	0.00022754191
0.046181314	0.16446912	0.0043240604	0.00022754353
0.046378247	0.17472376	0.0045831315	0.00022754048
0.046575181	0.18301105	0.0048000081	0.00022754191
0.046772119	0.17203563	0.0044939728	0.00022754353
0.046969052	0.16337645	0.0042534168	0.00022754495
0.04716599	0.15132925	0.0039408696	0.00022754048
0.047362924	0.15161724	0.0039265626	0.00022754048
0.047559857	0.16621985	0.0042932173	0.00022754495
0.047756795	0.15110813	0.0039064866	0.00022754048
0.047953729	0.15962441	0.0041238144	0.00022754495
0.048150666	0.15660252	0.0040239329	0.00022754048
0.0483476	0.15992036	0.004109845	0.00022754048
0.048544534	0.14931238	0.0038111263	0.00022754191
0.048741471	0.15952538	0.0040864162	0.00022753744
0.048938405	0.16286644	0.0041468702	0.00022754191
0.049135342	0.20380078	0.0052061891	0.00022754048
0.049332276	0.16591056	0.0042136884	0.00022753744
0.04952921	0.15588616	0.0039545973	0.00022753887
0.049726147	0.16956802	0.0042955279	0.00022753744
0.049923081	0.14882837	0.0037351071	0.00022754191
0.050120018	0.17007673	0.0042897733	0.00022753744
0.050316952	0.15866922	0.0040030559	0.00022753744
0.050513886	0.14730158	0.0037024682	0.00022753887
0.050710823	0.15599239	0.003918468	0.00022753744
0.050907757	0.15642458	0.0038880622	0.00022753887
0.051104695	0.15178014	0.0037834668	0.00022753744
0.051301628	0.17540574	0.0043722945	0.00022753744
0.051498562	0.16791511	0.0041842242	0.00022753887
0.0516955	0.14718615	0.0036503873	0.00022753744
0.051892433	0.14871481	0.0036677832	0.00022753887
0.052089371	0.17469136	0.0043305364	0.0002275344
0.052286305	0.16150577	0.0039702905	0.00022753744
0.052483238	0.16717325	0.0041118055	0.00022753583
0.052680176	0.17446809	0.0042910371	0.0002275344
0.052877109	0.17386018	0.0042760288	0.00022753887
0.053074047	0.16214587	0.0039704018	0.0002275344
0.053270981	0.18686567	0.0045549646	0.00022753744
0.053467914	0.17661098	0.0043038512	0.00022753887
0.053664852	0.17826618	0.0043945145	0.0002275344
0.053861786	0.15541796	0.0038578925	0.00022753583
0.054058723	0.17372353	0.0043254136	0.0002275344
0.054255657	0.18614718	0.0046197106	0.0002275344
0.054452591	0.21013133	0.0052435631	0.00022753583
0.054649528	0.18714909	0.0046637892	0.0002275344
0.054846462	0.17304075	0.0043224734	0.00022753583
0.055043399	0.18021424	0.0045136753	0.00022753136
0.055240333	0.19646241	0.0049276887	0.0002275344
0.055437267	0.15248898	0.0038168982	0.00022753583
0.055634204	0.16395494	0.0040906309	0.00022753136
0.055831138	0.19252692	0.0048341635	0.00022753279
0.056028076	0.16865954	0.0042206468	0.00022753136
0.056225009	0.2022756	0.0050749998	0.00022753136
0.056421943	0.19272496	0.0048579569	0.00022753279
0.05661888	0.20364551	0.0050945552	0.00022753136
0.056815814	0.1891892	0.0047329138	0.00022753279
0.057012752	0.19746836	0.0049570589	0.00022753136
0.057209685	0.1969697	0.0049390038	0.00022752832
0.057406619	0.25	0.0062715579	0.00022753279
0.057603557	0.22362603	0.0056096995	0.00022753136
0.05780049	0.23924051	0.0060077882	0.00022753279
0.057997428	0.24811558	0.006206939	0.00022752832
0.058194362	0.23674242	0.0059379935	0.00022752832
0.058391295	0.24952622	0.0062610065	0.00022752974
0.058588233	0.25062656	0.0062624817	0.00022752832
0.058785167	0.27531645	0.0069158683	0.00022752974
0.058982104	0.25141421	0.0062921112	0.00022752832
0.059179038	0.28454775	0.0071214861	0.00022752832
0.059375972	0.29704216	0.0074403961	0.00022752974
0.059572909	0.2462406	0.0061535686	0.00022752528
0.059769843	0.27032137	0.0067753368	0.00022752974
0.05996678	0.25588599	0.0063589243	0.00022752528
0.060163714	0.21487083	0.0053835125	0.00022752528
0.060360648	0.2350374	0.00585892	0.00022752974
0.060557585	0.24921729	0.0062266854	0.00022752528
0.060754519	0.20597386	0.0051280949	0.0002275267
0.060951456	0.22222222	0.0055420194	0.00022752528
0.06114839	0.21406347	0.0053298767	0.00022752528
0.061345324	0.20547946	0.0051168599	0.0002275267
0.061542261	0.20372671	0.0050672768	0.00022752528
0.061739195	0.19651741	0.00489023	0.0002275267
0.061936133	0.18412896	0.00457385	0.00022752528
0.062133066	0.19245049	0.0047767954	0.00022752528
0.06233	0.17230769	0.0042632362	0.00022752528
0.062526934	0.16440049	0.0040764301	0.0002275251
0.062723875	0.17617866	0.0043778513	0.00022751919
0.062920809	0.16461159	0.0040774331	0.00022752528
0.063117743	0.13453193	0.0033401728	0.00022751919
0.063314676	0.14993881	0.0036997853	0.00022751919
0.06351161	0.1453879	0.0035836806	0.00022752814
0.063708551	0.1741263	0.0043016141	0.00022751919
0.063905485	0.13535228	0.0033560977	0.00022751919
0.064102419	0.12987804	0.0031977831	0.00022751919
0.064299352	0.14451928	0.0035670293	0.00022752528
0.064496286	0.1366687	0.0033664724	0.00022752205
0.064693227	0.14277035	0.0035097275	0.00022751919
0.064890161	0.16	0.0039295363	0.00022751919
0.065087095	0.11667684	0.0028743118	0.00022752528
0.065284029	0.10934637	0.0026932287	0.00022752528
0.065480962	0.1216707	0.0029836893	0.00022752205
0.065677904	0.11070999	0.0027067256	0.00022752528
0.065874837	0.13127647	0.0032185435	0.00022751919
0.066071771	0.11860325	0.0029008209	0.00022751919
0.066268705	0.1197098	0.0029331641	0.00022751919
0.066465639	0.12402167	0.003034509	0.00022752205
0.06666258	0.11317366	0.0027610334	0.00022751919
0.066859514	0.11871593	0.0029126774	0.00022751919
0.067056447	0.11890607	0.0028913617	0.00022751919
0.067253381	0.12492529	0.0030443927	0.00022751919
0.067450315	0.10878661	0.0026510495	0.00022751596
0.067647256	0.11976048	0.0029217061	0.00022751919
0.06784419	0.11151079	0.0027213653	0.00022751919
0.068041123	0.11775148	0.0028550667	0.00022751311
0.068238057	0.10432721	0.0025307634	0.00022751311
0.068434991	0.094474152	0.002294021	0.00022752205
0.068631932	0.10756501	0.0026059574	0.00022751311
0.068828866	0.10227273	0.0024919217	0.00022751311
0.0690258	0.092928112	0.0022380189	0.00022751311
0.069222733	0.099173553	0.0024009531	0.00022751311
0.069419667	0.10047282	0.0024338975	0.00022751596
0.069616608	0.093786635	0.0022618091	0.00022751311
0.069813542	0.10217264	0.0024670868	0.00022751311
0.070010476	0.096584216	0.0023353226	0.00022751311
0.07020741	0.10395747	0.0025183018	0.00022751311
0.070404343	0.11438475	0.0027412958	0.00022752205
0.070601285	0.099824868	0.0024031429	0.00022751311
0.070798218	0.10110401	0.0024289608	0.00022751311
0.070995152	0.11319648	0.0027329391	0.00022751311
0.071192086	0.10157618	0.0024455111	0.00022751311
0.071389019	0.10529344	0.002517516	0.00022751596
0.071585961	0.1049884	0.0025198925	0.00022750701
0.071782894	0.1017341	0.0024376926	0.00022751311
0.071979828	0.097504355	0.0023411661	0.00022751311
0.072176762	0.10835735	0.0025935308	0.00022751311
0.072373696	0.097994268	0.0023370085	0.00022751596
0.072570637	0.095072463	0.0022802704	0.00022751311
0.072767571	0.10517339	0.0024995508	0.00022750701
0.072964504	0.10243055	0.0024555477	0.00022750701
0.073161438	0.10278251	0.0024403534	0.00022751311
0.073358372	0.095537759	0.0022772506	0.00022750988
0.073555313	0.10195853	0.0024388256	0.00022750701
0.073752247	0.074618429	0.0017667586	0.00022751311
0.073949181	0.091894977	0.0021872965	0.00022750701
0.074146114	0.085455574	0.0020251481	0.00022751311
0.074343048	0.094694808	0.0022531326	0.00022750988
0.074539989	0.097103916	0.0023057808	0.00022750701
0.074736923	0.093907207	0.002212157	0.00022750701
0.074933857	0.10813887	0.002571427	0.00022750701
0.07513079	0.11148649	0.0026375486	0.00022750701
0.075327724	0.085022524	0.0020095042	0.0002275038
0.075524665	0.09971831	0.0023594063	0.00022750701
0.075721599	0.086302899	0.0020290667	0.00022750093
0.075918533	0.078828827	0.0018629202	0.00022750701
0.076115467	0.076664798	0.0018057924	0.00022750701
0.0763124	0.090452261	0.0021296018	0.00022750988
0.076509342	0.071190208	0.0016709432	0.00022750701
0.076706275	0.068295389	0.0016015775	0.00022750701
0.076903209	0.079035871	0.0018630242	0.00022750701
0.077100143	0.080440775	0.0018804184	0.00022750093
0.077297077	0.080931261	0.0018979161	0.0002275038
0.077494018	0.09510567	0.0022351926	0.00022750093
0.077690952	0.076415613	0.0017835938	0.00022750093
0.077887885	0.091922008	0.0021623762	0.00022750093
0.078084819	0.087690629	0.0020389708	0.00022750093
0.078281753	0.086406164	0.002019915	0.0002275038
0.078478694	0.07099615	0.0016586324	0.00022750093
0.078675628	0.07973785	0.001856347	0.00022750093
0.078872561	0.073869899	0.0017272269	0.00022750093
0.079069495	0.087738417	0.0020404793	0.00022750093
0.079266429	0.079650849	0.0018532213	0.0002275038
0.07946337	0.076335877	0.0017749608	0.00022750093
0.079660304	0.077339105	0.0017915324	0.00022750093
0.079857238	0.068268709	0.0015876218	0.00022750093
0.080054171	0.086533263	0.0020051464	0.00022750093
0.080251105	0.085013621	0.0019776926	0.0002275038
0.080448046	0.086253367	0.0019952669	0.00022749485
0.08064498	0.070128478	0.0016158578	0.00022750093
0.080841914	0.072086722	0.0016713357	0.00022750093
0.081038848	0.072961375	0.0016834285	0.00022749485
0.081235781	0.064935066	0.0015034669	0.00022749772
0.081432723	0.085912488	0.0019777187	0.00022749485
0.081629656	0.08213333	0.0018891968	0.00022749485
0.08182659	0.080342799	0.0018518709	0.00022749485
0.082023524	0.073975518	0.0016991006	0.00022749485
0.082220457	0.086050242	0.0019820158	0.00022749772
0.082417399	0.074133337	0.0017053428	0.00022749485
0.082614332	0.070782334	0.0016263553	0.00022749485
0.082811266	0.060541689	0.0013875788	0.00022749485
0.0830082	0.070526317	0.0016110028	0.00022749485
0.083205134	0.067653276	0.0015486235	0.00022749163
0.083402075	0.075541466	0.0017288266	0.00022749485
0.083599009	0.083022885	0.001908306	0.00022749485
0.083795942	0.06820567	0.0015556471	0.00022748877
0.083992876	0.069669984	0.0015874378	0.00022749485
0.08418981	0.074869111	0.001706466	0.00022749772
0.084386751	0.080586083	0.0018368365	0.00022748877
0.084583685	0.074228957	0.0016902365	0.00022749485
0.084780619	0.062988028	0.0014309544	0.00022749485
0.084977552	0.062108558	0.0014117903	0.00022748877
0.085174486	0.055842813	0.0012632604	0.00022749163
0.085371427	0.062922515	0.0014284267	0.00022748877
0.085568361	0.061245497	0.0013832494	0.00022748877
0.085765295	0.070987657	0.0016033278	0.00022748877
0.085962228	0.081856102	0.0018620766	0.00022748877
0.086159162	0.085993819	0.0019442074	0.00022748555
0.086356103	0.069826707	0.0015692853	0.00022748877
0.086553037	0.072381929	0.0016325744	0.00022748877
0.086749971	0.062468257	0.0014012855	0.00022748877
0.086946905	0.06069959	0.0013706055	0.00022748268
0.087143838	0.078053728	0.0017500311	0.00022749163
0.08734078	0.063742988	0.0014322776	0.00022748877
0.087537713	0.066869304	0.0014979036	0.00022748268
0.087734647	0.055134043	0.0012334422	0.00022748877
0.087931581	0.0574187	0.0012874786	0.00022748877
0.088128515	0.061778001	0.0013779362	0.00022748555
0.088325456	0.060422961	0.0013490171	0.00022748268
0.08852239	0.068354428	0.0015315042	0.00022748268
0.088719323	0.062406391	0.001387817	0.00022748268
0.088916257	0.065130264	0.0014512618	0.00022748268
0.089113191	0.069430567	0.0015445972	0.00022748555
0.089310132	0.058941059	0.0013109919	0.00022748268
0.089507066	0.062749006	0.0013942061	0.00022748268
0.089703999	0.065972224	0.0014628957	0.00022748268
0.089900933	0.064999998	0.0014467365	0.00022748268
0.090097867	0.06886375	0.0015206364	0.00022747947
0.090294808	0.078265205	0.0017408098	0.00022748268
0.090491742	0.06808091	0.0015053706	0.00022748268
0.090688676	0.061789423	0.0013671955	0.00022748268
0.090885609	0.070088848	0.001551028	0.0002274766
0.091082543	0.067454457	0.0014906256	0.00022748268
0.091279477	0.063453026	0.0014007255	0.00022748555
0.091476418	0.065420561	0.0014445819	0.0002274766
0.091673352	0.065917969	0.0014506618	0.00022748268
0.091870286	0.072655864	0.0016033562	0.0002274766
0.092067219	0.073947109	0.001629657	0.0002274766
0.092264153	0.066699125	0.001465497	0.00022747947
0.092461094	0.077560976	0.0017066282	0.0002274766
0.092658028	0.069437653	0.0015289233	0.0002274766
0.092854962	0.068214804	0.0014944513	0.0002274766
0.093051895	0.061382309	0.0013430417	0.0002274766
0.093248829	0.062166099	0.0013639769	0.00022747337
0.09344577	0.066698886	0.001459759	0.0002274766
0.093642704	0.054907676	0.0012041305	0.00022747052
0.093839638	0.054001927	0.0011800013	0.0002274766
0.094036572	0.062049061	0.0013544053	0.0002274766
0.094233505	0.05973025	0.0013052662	0.00022747947
0.094430447	0.055555556	0.0012098396	0.00022747052
0.09462738	0.071980678	0.001576293	0.00022747052
0.094824314	0.07125777	0.0015519684	0.00022747052
0.095021248	0.073719487	0.0016068999	0.00022747052
0.095218182	0.075202286	0.0016350554	0.00022747337
0.095415123	0.055422839	0.0012059587	0.00022747052
0.095612057	0.077179611	0.001678438	0.00022747052
0.09580899	0.057061341	0.00123861	0.00022747052
0.096005924	0.059808612	0.0013021402	0.00022747052
0.096202858	0.072072074	0.0015637639	0.00022747337
0.096399799	0.058156028	0.0012592874	0.00022747052
0.096596733	0.063499533	0.0013717039	0.00022746444
0.096793666	0.069943286	0.0015147432	0.00022747052
0.0969906	0.067580342	0.0014636167	0.00022746444
0.097187534	0.055607919	0.0012012694	0.00022747337
0.097384475	0.056211621	0.0012159796	0.00022746444
0.097581409	0.077537596	0.0016747079	0.00022747052
0.097778343	0.06747324	0.0014500493	0.00022746444
0.097975276	0.062588237	0.0013524715	0.00022746444
0.09817221	0.0625	0.0013441561	0.00022746729
0.098369151	0.077322021	0.0016731342	0.00022746444
0.098566085	0.062992126	0.0013498304	0.00022746444
0.098763019	0.072131149	0.0015555044	0.00022746444
0.098959953	0.058279373	0.001247825	0.00022746444
0.099156886	0.053579677	0.0011457776	0.00022746121
0.099353828	0.067226894	0.001446999	0.00022746444
0.099550761	0.061338291	0.0013166142	0.00022745834
0.099747695	0.065929003	0.0014097356	0.00022745834
0.099944629	0.045790933	0.00097964425	0.00022745834
0.10014156	0.060229886	0.0012856874	0.00022746121
0.1003385	0.070143051	0.0015006744	0.00022745834
0.10053544	0.062385321	0.0013306602	0.00022746444
0.10073237	0.059479553	0.0012765867	0.00022745834
0.1009293	0.068744272	0.0014662344	0.00022746444
0.10112624	0.05590909	0.0011867671	0.00022746121
0.10132318	0.052389707	0.0011171992	0.00022746444
0.10152011	0.068605177	0.0014562706	0.00022745834
0.10171705	0.072702333	0.0015485954	0.00022745834
0.10191398	0.066545121	0.0014150637	0.00022745834
0.10211091	0.060758337	0.001293216	0.00022746121
0.10230786	0.06139154	0.0013035985	0.00022745834
0.10250479	0.06329114	0.0013403677	0.00022745226
0.10270172	0.070720717	0.0014951681	0.00022745226
0.10289866	0.07015945	0.0014920901	0.00022745226
0.10309559	0.063176893	0.0013367396	0.00022745512
0.10329253	0.072982773	0.0015485563	0.00022745226
0.10348947	0.069058299	0.0014567238	0.00022745834
0.1036864	0.06171171	0.0013043522	0.00022745226
0.10388333	0.059668012	0.0012576233	0.00022745226
0.10408027	0.058029689	0.0012255334	0.00022746121
0.10427721	0.063677132	0.0013431102	0.00022745226
0.10447414	0.075370118	0.0015907022	0.00022745226
0.10467108	0.069073081	0.0014528328	0.00022745226
0.10486801	0.057666518	0.0012134559	0.00022745226
0.10506494	0.070509978	0.0014794224	0.00022745512
0.10526188	0.082405344	0.0017338507	0.00022745226
0.10545882	0.076544315	0.0016139164	0.00022744617
0.10565575	0.073992021	0.0015517968	0.00022745226
0.10585269	0.089698046	0.0018848268	0.00022745226
0.10604962	0.09010601	0.0018883025	0.00022745512
0.10624656	0.096460178	0.0020238163	0.00022744617
0.10644349	0.10017652	0.0020994823	0.00022744617
0.10664043	0.10215764	0.0021381797	0.00022745226
0.10683736	0.10703228	0.0022456669	0.00022744617
0.1070343	0.11355634	0.0023768619	0.00022744904
0.10723124	0.096195891	0.0020064609	0.00022744617
0.10742817	0.096035242	0.0020104134	0.00022744617
0.1076251	0.10629068	0.0022089039	0.00022744617
0.10782204	0.10945055	0.0022887797	0.00022744617
0.10801897	0.083952777	0.0017500678	0.00022744904
0.10821591	0.087964989	0.0018351121	0.00022744617
0.10841285	0.081517003	0.0016970494	0.00022744617
0.10860978	0.083080918	0.0017231551	0.00022744009
0.10880671	0.079016678	0.0016504345	0.00022744009
0.10900365	0.093223996	0.0019315986	0.00022744904
0.10920059	0.095114566	0.00197272	0.00022744009
0.10939752	0.090672448	0.0018836176	0.00022744009
0.10959446	0.092440605	0.0019165119	0.00022744009
0.10979139	0.09991312	0.0020769653	0.00022744009
0.10998832	0.096442349	0.0019919227	0.00022744296
0.11018527	0.093574814	0.0019383511	0.00022744009
0.1103822	0.086169757	0.0017836272	0.00022744009
0.11057913	0.094420604	0.0019510449	0.00022743401
0.11077607	0.097246125	0.0020123583	0.00022744009
0.110973	0.10860307	0.0022363397	0.00022743687
0.11116994	0.12099188	0.0024969047	0.00022743401
0.11136688	0.13233405	0.0027334543	0.00022743401
0.11156381	0.14972351	0.0030827969	0.00022743401
0.11176074	0.17307693	0.0035729143	0.00022743401
0.11195768	0.1759966	0.003619313	0.00022744296
0.11215462	0.22659256	0.0046799839	0.00022743401
0.11235155	0.27843803	0.0057310872	0.00022743401
0.11254849	0.33009708	0.0067767831	0.00022743401
0.11274542	0.36790854	0.0075646569	0.00022743401
0.11294235	0.48154435	0.0099126669	0.00022743687
0.11313929	0.64113414	0.013182275	0.00022743401
0.11333623	0.86655474	0.017743401	0.00022743401
0.11353316	1.1471459	0.023578135	0.00022742792
0.1137301	1.4894958	0.030519262	0.00022743401
0.11392703	1.81841	0.037183452	0.00022743079
0.11412397	2.0865183	0.042746626	0.00022742792
0.1143209	2.236654	0.045842759	0.00022742792
0.11451784	2.3742151	0.048561934	0.00022742792
0.11471477	2.2547209	0.046177641	0.00022742792
0.11491171	2.1582437	0.043917898	0.00022743079
0.11510865	1.9979132	0.040808424	0.00022742792
0.11530558	1.9021648	0.038804442	0.00022742792
0.11550251	1.7549143	0.035882581	0.00022742792
0.11569945	1.7335267	0.03528364	0.00022742792
0.11589638	1.8332644	0.037283335	0.00022743079
0.11609332	2.0264573	0.04119543	0.00022742792
0.11629026	2.3683774	0.048176672	0.00022742792
0.11648719	3.0124018	0.061238945	0.00022742184
0.11668412	4.0008259	0.081282899	0.00022742184
0.11688106	5.3454847	0.10878172	0.00022742471
0.117078	7.2220397	0.14642727	0.00022742184
0.11727493	9.4609089	0.19138975	0.00022742184
0.11747187	12.067131	0.24411426	0.00022742184
0.1176688	14.588356	0.29536247	0.00022742184
0.11786573	16.643976	0.33802557	0.00022742471
0.11806267	18.534504	0.37450054	0.00022742184
0.11825961	19.696026	0.39862594	0.00022742184
0.11845654	19.588808	0.3944459	0.00022742184
0.11865348	19.339437	0.39013991	0.00022742184
0.11885041	18.200737	0.36837286	0.00022741863
0.11904735	16.639271	0.33478758	0.00022741576
0.11924428	15.055737	0.30366322	0.00022741576
0.11944122	13.33657	0.26822215	0.00022741576
0.11963815	11.860276	0.23900998	0.00022741576
0.11983509	10.304942	0.20653112	0.00022741863
0.12003203	8.8295641	0.17741917	0.00022741576
0.12022896	7.4705405	0.15056255	0.00022741576
0.12042589	6.0242915	0.12118906	0.00022741576
0.12062283	4.9875751	0.099827223	0.00022741576
0.12081976	3.8311272	0.076709427	0.00022741863
0.1210167	2.8756001	0.057495277	0.00022741576
0.12121364	2.1389337	0.042972039	0.00022740968
0.12141057	1.4826348	0.029612897	0.00022740968
0.1216075	1.0842359	0.02170757	0.00022741576
0.12180444	0.76313692	0.015220012	0.00022741254
0.12200138	0.58907932	0.011755509	0.00022740968
0.12219831	0.47923324	0.0095722713	0.00022741576
0.12239525	0.39089108	0.0077745919	0.00022741576
0.12259218	0.35797045	0.0071505713	0.00022740968
0.12278911	0.30163151	0.0060126395	0.00022741254
0.12298606	0.27720413	0.0055196774	0.00022740968
0.12318299	0.25890738	0.0051468443	0.00022740968
0.12337992	0.22950177	0.0045411917	0.00022740968
0.12357686	0.21658072	0.0043088011	0.00022740968
0.12377379	0.18925326	0.0037574288	0.00022740646
0.12397073	0.19147256	0.003799777	0.00022740968
0.12416767	0.16496465	0.0032649299	0.00022740359
0.1243646	0.14106584	0.0027878166	0.00022740359
0.12456153	0.14353313	0.0028459311	0.00022740359
0.12475847	0.13597178	0.0026872701	0.00022740646
0.12495541	0.12160566	0.0024083212	0.00022739463
0.12515233	0.1207975	0.0023841246	0.00022740323
0.12534928	0.11560918	0.0022767959	0.00022739751
0.12554622	0.11067657	0.0021842916	0.00022739751
0.12574315	0.10649048	0.0020949431	0.00022739751
0.12594008	0.099648297	0.0019657072	0.00022739751
0.12613702	0.10299262	0.0020261984	0.00022740968
0.12633395	0.1005848	0.0019818591	0.00022740968
0.12653089	0.095274977	0.0018708311	0.00022739751
0.12672782	0.091962904	0.0018037845	0.00022739751
0.12692475	0.085280374	0.0016786859	0.00022739751
0.12712169	0.08537519	0.0016661885	0.00022740323
0.12731864	0.079315707	0.0015598532	0.00022739751
0.12751557	0.078876488	0.0015431948	0.00022739751
0.1277125	0.084615387	0.0016553338	0.00022739751
0.12790944	0.085361145	0.0016735949	0.00022739751
0.12810637	0.083429448	0.0016318545	0.00022739751
0.1283033	0.077041015	0.0015043728	0.00022739751
0.12850024	0.078957453	0.0015416549	0.00022739751
0.12869717	0.080688335	0.0015738724	0.00022738535
0.12889411	0.071840182	0.0014039433	0.00022739751
0.12909104	0.075313807	0.0014647071	0.00022740323
0.12928799	0.06058282	0.0011821499	0.00022739751
0.12948492	0.071996972	0.0013973365	0.00022739751
0.12968186	0.058081772	0.0011315016	0.00022738535
0.12987879	0.061309978	0.0011926483	0.00022738535
0.13007572	0.057888761	0.0011220627	0.00022738535
0.13027266	0.05783866	0.0011243059	0.00022738535
0.13046959	0.056311414	0.0010907971	0.00022738535
0.13066652	0.06029579	0.0011701371	0.00022738535
0.13086346	0.057844989	0.0011206936	0.00022739751
0.13106039	0.065641411	0.0012673583	0.00022740323
0.13125734	0.055133078	0.0010710924	0.00022738535
0.13145427	0.058602553	0.001131879	0.00022738535
0.13165121	0.061393596	0.0011875593	0.00022738535
0.13184814	0.065192953	0.001257965	0.00022738535
0.13204508	0.05251313	0.0010131741	0.00022738535
0.13224201	0.051359516	0.00099398778	0.00022738535
0.13243894	0.053811658	0.0010364121	0.00022738535
0.13263588	0.060357675	0.0011612998	0.00022738535
0.13283281	0.056469709	0.0010881316	0.00022738535
0.13302974	0.042290419	0.00081427075	0.00022739106
0.13322669	0.052238807	0.0010048307	0.00022738535
0.13342363	0.052631579	0.0010091772	0.00022738535
0.13362056	0.059413295	0.0011409395	0.00022738535
0.13381749	0.064107344	0.0012333522	0.00022737318
0.13401443	0.049479168	0.00095033646	0.00022737318
0.13421136	0.056029685	0.0010754839	0.00022738535
0.1344083	0.051952839	0.00099348824	0.00022737318
0.13460523	0.048041388	0.00091970345	0.00022737318
0.13480216	0.04795539	0.00092074985	0.00022737318
0.1349991	0.051481482	0.00098706514	0.0002273789
0.13519605	0.05180591	0.00098596374	0.00022737318
0.13539298	0.049611256	0.00095077266	0.00022737318
0.13558991	0.053113554	0.0010128735	0.00022737318
0.13578685	0.052186698	0.00099680584	0.00022737318
0.13598378	0.051629439	0.00098412542	0.00022737318
0.13618071	0.04712813	0.000900766	0.00022737318
0.13637765	0.041010618	0.00078094925	0.00022737318
0.13657458	0.049324077	0.00093885424	0.00022737318
0.13677152	0.047740526	0.00090746448	0.00022737318
0.13696845	0.047601745	0.00090366922	0.00022737318
0.13716538	0.05184374	0.00098699459	0.0002273789
0.13736233	0.050128065	0.00095497764	0.00022737318
0.13755926	0.048049133	0.00090979418	0.00022737318
0.1377562	0.043335762	0.00082323945	0.00022737318
0.13795313	0.043904208	0.00083248026	0.00022736102
0.13815007	0.046226073	0.00087454071	0.00022736102
0.138347	0.044960115	0.00085241551	0.00022737318
0.13854393	0.050000001	0.00094461319	0.00022737318
0.13874087	0.048	0.00091143581	0.00022736102
0.1389378	0.051985558	0.00098390866	0.00022736102
0.13913473	0.046219993	0.00087106059	0.00022736673
0.13933168	0.056074765	0.0010592999	0.00022737318
0.13952862	0.043447036	0.00081990525	0.00022737318
0.13972555	0.046511628	0.00088303821	0.00022736102
0.13992248	0.046329293	0.00087112992	0.00022736102
0.14011942	0.043743279	0.00082465378	0.00022736102
0.14031635	0.052217454	0.00098403206	0.00022737318
0.14051329	0.0470924	0.00088601245	0.00022736102
0.14071022	0.048080374	0.0009070501	0.00022736102
0.14090715	0.050318923	0.00094367308	0.00022736102
0.14110409	0.043912888	0.00082610955	0.00022736673
0.14130104	0.048248749	0.00090816536	0.00022736102
0.14149797	0.047838412	0.00089675217	0.00022736102
0.1416949	0.048953529	0.00091834192	0.00022734885
0.14189184	0.052650176	0.00098619657	0.00022736102
0.14208877	0.055	0.0010355033	0.00022736102
0.1422857	0.041120172	0.00077041454	0.00022736102
0.14248264	0.05054405	0.00094344816	0.00022736102
0.14267957	0.040070921	0.00075095036	0.00022736102
0.14287651	0.036203865	0.00067537901	0.00022736102
0.14307344	0.042462844	0.00079524354	0.00022735457
0.14327039	0.043218553	0.00080653786	0.00022736102
0.14346732	0.051372275	0.0009599629	0.00022734885
0.14366426	0.04036504	0.00075267401	0.00022734885
0.14386119	0.039663039	0.00073968782	0.00022736102
0.14405812	0.051138353	0.00095341285	0.00022734885
0.14425506	0.053714685	0.00099954079	0.00022734885
0.14445199	0.041388985	0.00077171501	0.00022734885
0.14464892	0.051948052	0.00096963294	0.00022734885
0.14484586	0.046228711	0.00085843069	0.00022734885
0.14504279	0.043235704	0.00080384256	0.00022735457
0.14523974	0.049067035	0.00090858166	0.00022734885
0.14543667	0.050859347	0.00094875525	0.00022733668
0.14563361	0.051023949	0.00094682904	0.00022734885
0.14583054	0.04310045	0.000799653	0.00022734885
0.14602748	0.049809754	0.00092264719	0.00022734885
0.14622441	0.049151957	0.00091098726	0.00022733668
0.14642134	0.047684867	0.00088315143	0.00022734885
0.14661828	0.039600551	0.00073150202	0.00022733668
0.14681521	0.0457539	0.00084835605	0.00022733668
0.14701214	0.047947567	0.00088709133	0.0002273424
0.14720909	0.049948331	0.00092372915	0.00022733668
0.14740603	0.048259221	0.00089257775	0.00022733668
0.14760296	0.04359673	0.00080133323	0.00022733668
0.14779989	0.03582501	0.00066126318	0.00022733668
0.14799683	0.041336548	0.00076375727	0.00022733668
0.14819376	0.036057692	0.00066487456	0.00022733668
0.1483907	0.042793564	0.000788451	0.00022733668
0.14858763	0.044588156	0.00081907347	0.00022733668
0.14878456	0.045001719	0.00083054556	0.00022733668
0.1489815	0.047118645	0.0008640039	0.0002273424
0.14917845	0.050425895	0.00092745235	0.00022733668
0.14937538	0.03956344	0.00072745874	0.00022733668
0.14957231	0.038943447	0.00071342307	0.00022733668
0.14976925	0.043150686	0.00079529831	0.00022733668
0.14996618	0.043478262	0.00079485186	0.00022733668
0.15016311	0.042372882	0.00077675167	0.00022732452
0.15036005	0.044202652	0.00081159378	0.00022732452
0.15055698	0.049865231	0.00091185799	0.00022733668
0.15075392	0.049286202	0.00090507313	0.00022733668
0.15095085	0.046628647	0.00084998272	0.00022733024
0.1511478	0.048837993	0.00089245406	0.00022732452
0.15134473	0.041258033	0.00075496588	0.00022733668
0.15154167	0.037571285	0.00068500784	0.00022732452
0.1517386	0.044286679	0.00081082725	0.00022732452
0.15193553	0.042531814	0.00077472016	0.00022732452
0.15213247	0.044705883	0.00081612804	0.00022733668
0.1523294	0.044250753	0.00080656336	0.00022732452
0.15252633	0.051649451	0.00093907217	0.00022732452
0.15272327	0.041150887	0.00074919977	0.00022732452
0.1529202	0.044377711	0.00080747931	0.00022733024
0.15311715	0.04024145	0.00073375955	0.00022732452
0.15331408	0.046859421	0.00085097027	0.00022732452
0.15351102	0.044215426	0.00080287043	0.00022732452
0.15370795	0.042262897	0.00076767156	0.00022731235
0.15390489	0.037603993	0.00068267412	0.00022732452
0.15410182	0.041349653	0.00074873504	0.00022732452
0.15429875	0.040199336	0.00072950154	0.00022732452
0.15449569	0.046480745	0.00084377592	0.00022731235
0.15469262	0.042025149	0.00076134515	0.00022731235
0.15488955	0.03458498	0.00062455551	0.00022731809
0.1550865	0.033267457	0.00060057116	0.00022732452
0.15528344	0.042080849	0.00076290709	0.00022731235
0.15548037	0.043723088	0.00079236162	0.00022731235
0.1556773	0.045901638	0.00082788419	0.00022731235
0.15587424	0.041186161	0.00074429833	0.00022731235
0.15607117	0.042428199	0.00076302962	0.00022731235
0.1562681	0.046488624	0.00084097387	0.00022731235
0.15646504	0.044021025	0.00079462671	0.00022732452
0.15666197	0.04643558	0.00083659764	0.00022731235
0.15685891	0.053939197	0.00097172742	0.00022731809
0.15705585	0.032626428	0.00058581383	0.00022731235
0.15725279	0.042567126	0.00076664338	0.00022731235
0.15744972	0.037711315	0.00067682064	0.00022731235
0.15764666	0.048177082	0.00086570275	0.00022731235
0.15784359	0.037704919	0.00067955395	0.00022731235
0.15804052	0.041828793	0.00074950064	0.00022731235
0.15823746	0.046269145	0.00083164574	0.00022731235
0.15843439	0.050547328	0.00090349326	0.00022731235
0.15863132	0.039559014	0.00070861733	0.00022730019
0.15882826	0.043648209	0.00078411162	0.00022731809
0.15902521	0.041370396	0.00073973142	0.00022730019
0.15922214	0.042112082	0.00075469736	0.00022730019
0.15941907	0.041693393	0.00074329146	0.00022731235
0.15961601	0.041437358	0.00074203161	0.00022730019
0.15981294	0.042498391	0.00075916899	0.00022730019
0.16000988	0.044752091	0.00079985417	0.00022730019
0.16020681	0.04057971	0.00072491437	0.00022730019
0.16040374	0.04135941	0.00073714263	0.00022730019
0.16060068	0.037395228	0.0006678768	0.00022730019
0.16079761	0.046570972	0.00082825241	0.00022730592
0.16099456	0.037958533	0.00067447056	0.00022730019
0.16119149	0.037656903	0.00067224517	0.00022730019
0.16138843	0.043172371	0.00076862139	0.00022730019
0.16158536	0.037487984	0.00066762784	0.00022730019
0.16178229	0.031458531	0.00055710512	0.00022728802
0.16197923	0.045628589	0.00081141031	0.00022728802
0.16217616	0.029879212	0.00052928453	0.00022728802
0.1623731	0.038841132	0.00068960135	0.00022728802
0.16257003	0.039669946	0.00070311956	0.00022728802
0.16276696	0.040025413	0.00070997514	0.00022730592
0.16296391	0.040343076	0.00071564323	0.00022728802
0.16316085	0.038595382	0.00068288075	0.00022730019
0.16335778	0.046187915	0.00081789866	0.00022728802
0.16355471	0.038764577	0.00068447593	0.00022728802
0.16375165	0.039703034	0.00070976879	0.00022728802
0.16394858	0.034990191	0.00062921585	0.00022728802
0.16414551	0.042115573	0.00075722265	0.00022728802
0.16434245	0.052214146	0.00094519381	0.00022728802
0.16453938	0.045545213	0.00082659948	0.00022728802
0.16473632	0.038757101	0.00070480141	0.00022729376
0.16493326	0.040768195	0.00074473443	0.00022728802
0.1651302	0.037571285	0.00068451156	0.00022727586
0.16532713	0.033515733	0.00061590312	0.00022728802
0.16552407	0.040284362	0.00073735538	0.00022727586
0.165721	0.036610171	0.00066998776	0.00022728802
0.16591793	0.035015449	0.0006450637	0.00022727586
0.16611487	0.033596162	0.00061825209	0.00022727586
0.1663118	0.046180554	0.00085699186	0.00022728802
0.16650873	0.041595049	0.00076756137	0.00022728802
0.16670567	0.04443679	0.00082073663	0.00022728159
0.16690262	0.03438694	0.00063734537	0.00022727586
0.16709955	0.037269246	0.00069181097	0.00022727586
0.16729648	0.036165729	0.00067366957	0.00022727586
0.16749342	0.031337049	0.00058115192	0.00022727586
0.16769035	0.039874081	0.00074183563	0.00022727586
0.16788729	0.043079097	0.00080528518	0.00022727586
0.16808422	0.038942978	0.00072251697	0.00022727586
0.16828115	0.036840241	0.00068983162	0.00022727586
0.16847809	0.039690904	0.00073994038	0.00022726369
0.16867502	0.040472779	0.00076233683	0.00022728159
0.16887197	0.0397304	0.00074394385	0.00022727586
0.1690689	0.035310734	0.00065945229	0.00022726369
0.16926584	0.034825869	0.0006527846	0.00022727586
0.16946277	0.045584045	0.0008561713	0.00022727586
0.1696597	0.032362461	0.00060983596	0.00022726369
0.16985664	0.043819025	0.00082324218	0.00022726369
0.17005357	0.042157914	0.00079303503	0.00022727586
0.17025051	0.038447719	0.00072475814	0.00022726369
0.17044744	0.045536034	0.00085819256	0.00022726369
0.17064437	0.042162161	0.00079638191	0.00022726943
0.17084132	0.046796255	0.00088364887	0.00022727586
0.17103826	0.040801458	0.00077491929	0.00022726369
0.17123519	0.043069128	0.00081512897	0.00022726369
0.17143212	0.046092905	0.00087071024	0.00022726369
0.17162906	0.043792978	0.00082914665	0.00022726369
0.17182599	0.046553589	0.00088008196	0.00022726369
0.17202292	0.034241531	0.00065323093	0.00022726369
0.17221986	0.04936479	0.00093658833	0.00022726369
0.17241679	0.036091872	0.00068498042	0.00022726369
0.17261373	0.035727307	0.00067822466	0.00022725726
0.17281067	0.036403351	0.00069078885	0.00022726369
0.17300761	0.039985325	0.00076187507	0.00022726369
0.17320454	0.042638484	0.00080991711	0.00022725153
0.17340147	0.040251106	0.00076948479	0.00022725153
0.17359841	0.036859564	0.00070374558	0.00022725153
0.17379534	0.04039662	0.00077005033	0.00022726369
0.17399228	0.040337369	0.00076842064	0.00022726369
0.17418921	0.038489737	0.0007325327	0.00022725153
0.17438614	0.044659473	0.00085738947	0.00022725153
0.17458308	0.036504425	0.00069668808	0.00022725726
0.17478003	0.047019623	0.00090064731	0.00022725153
0.17497696	0.041404806	0.00079223717	0.00022725153
0.17517389	0.049963262	0.00095356989	0.00022725153
0.17537083	0.03784189	0.00072855281	0.00022723936
0.17556776	0.041358937	0.00079085713	0.00022723936
0.17576469	0.043219075	0.00082990585	0.00022723936
0.17596163	0.045590434	0.00087720429	0.00022725153
0.17615856	0.044897959	0.00086084794	0.00022725153
0.1763555	0.045775957	0.00087853934	0.00022725153
0.17655243	0.044172235	0.00084701128	0.00022724509
0.17674938	0.035687454	0.00068732101	0.00022723936
0.17694631	0.038620174	0.00074355042	0.00022723936
0.17714325	0.035914704	0.00069055607	0.00022725153
0.17734018	0.044686444	0.00086178479	0.00022723936
0.17753711	0.048345111	0.00092827366	0.00022723936
0.17773405	0.042449288	0.00081866968	0.00022723936
0.17793098	0.043773584	0.00084605784	0.00022723936
0.17812791	0.043527205	0.00083917589	0.00022723936
0.17832485	0.038360287	0.00073989428	0.00022723936
0.17852178	0.038012795	0.00073342194	0.00022724509
0.17871873	0.0403926	0.00077989599	0.00022723936
0.17891566	0.041008279	0.00079103239	0.00022723936
0.1791126	0.046089914	0.00089147978	0.00022722721
0.17930953	0.039637599	0.00076590036	0.00022723936
0.17950647	0.034874905	0.00067454879	0.00022723936
0.1797034	0.041965973	0.00081199303	0.00022723936
0.17990033	0.033195022	0.00064057624	0.00022723936
0.18009727	0.038022812	0.00073717633	0.00022722721
0.1802942	0.037485801	0.00072549819	0.00022722721
0.18049113	0.034825869	0.00067725254	0.00022723294
0.18068808	0.037893143	0.00073340797	0.00022722721
0.18088502	0.034861691	0.00067448826	0.00022722721
0.18108195	0.03582317	0.00069517537	0.00022722721
0.18127888	0.037248194	0.00072207145	0.00022722721
0.18147582	0.041221373	0.00080111757	0.00022722721
0.18167275	0.03717754	0.00072009355	0.00022722721
0.18186969	0.032950193	0.00064062717	0.00022722721
0.18206662	0.044095092	0.00085926056	0.00022722721
0.18226355	0.039364118	0.00076164585	0.00022721505
0.18246049	0.042577676	0.00082988146	0.00022723294
0.18265744	0.045055363	0.0008763817	0.00022721505
0.18285437	0.039200615	0.00076463964	0.00022722721
0.1830513	0.036937285	0.00072049891	0.00022722721
0.18324824	0.046095237	0.00089545303	0.00022721505
0.18344517	0.034588777	0.00067401183	0.00022721505
0.1836421	0.033742331	0.00065648591	0.00022721505
0.18383904	0.035384614	0.00068931025	0.00022721505
0.18403597	0.034204457	0.00066604512	0.00022721505
0.18423291	0.033474412	0.00065234344	0.00022721505
0.18442984	0.041069351	0.00080400571	0.00022722078
0.18462679	0.03642638	0.00070894003	0.00022721505
0.18482372	0.044735827	0.00087430852	0.00022721505
0.18502066	0.04342813	0.00084742083	0.00022721505
0.18521759	0.037509669	0.00073323387	0.00022721505
0.18541452	0.039891556	0.00078087026	0.00022721505
0.18561146	0.03046664	0.00059433223	0.00022721505
0.18580839	0.036622975	0.00071508862	0.00022721505
0.18600532	0.038714673	0.00075754384	0.00022720288
0.18620226	0.039192859	0.00076776632	0.00022721505
0.18639919	0.035243995	0.0006891503	0.00022722078
0.18659614	0.036821704	0.00072059449	0.00022720288
0.18679307	0.029641185	0.00058142358	0.00022720288
0.18699001	0.032856591	0.00064167072	0.00022720288
0.18718694	0.035005834	0.00068606896	0.00022720288
0.18738388	0.028033795	0.00054517516	0.00022720288
0.18758081	0.034915652	0.0006872802	0.00022721505
0.18777774	0.038865138	0.00076204207	0.00022720288
0.18797468	0.040887851	0.00080220564	0.00022720288
0.18817161	0.03897116	0.00076531764	0.00022719071
0.18836854	0.044117648	0.00086384243	0.00022720861
0.18856549	0.039339103	0.00077586918	0.00022719071
0.18876243	0.034643829	0.00067944266	0.00022720288
0.18895936	0.038206629	0.00074996491	0.00022720288
0.18915629	0.037514653	0.00073746027	0.00022719071
0.18935323	0.046466224	0.00091372075	0.00022719071
0.18955016	0.042369556	0.0008346808	0.00022720288
0.1897471	0.048192769	0.00094587053	0.00022719071
0.18994403	0.044992175	0.00088555086	0.00022720288
0.19014096	0.043324143	0.00085548247	0.00022719071
0.1903379	0.041261192	0.0008097922	0.00022719646
0.19053484	0.040567152	0.00080048834	0.00022719071
0.19073178	0.042445485	0.00083312654	0.00022719071
0.19092871	0.04169945	0.00082221162	0.00022719071
0.19112565	0.040711462	0.00080514775	0.00022719071
0.19132258	0.046375681	0.00091131096	0.00022719071
0.19151951	0.031114612	0.00061309681	0.00022719071
0.19171645	0.035742342	0.00070407876	0.00022719071
0.19191338	0.036234736	0.00071456004	0.00022717856
0.19211031	0.037254903	0.00073343213	0.00022719071
0.19230725	0.036906164	0.0007269411	0.00022719646
0.1925042	0.035728462	0.0007076019	0.00022719071
0.19270113	0.036585364	0.0007214456	0.00022719071
0.19289806	0.044505712	0.00087881269	0.00022719071
0.193095	0.039169606	0.00077062548	0.00022717856
0.19329193	0.047637951	0.00094439008	0.00022719071
0.19348887	0.041534811	0.00082109682	0.00022717856
0.1936858	0.03853716	0.00075963925	0.00022717856
0.19388273	0.0394633	0.00077962561	0.00022717856
0.19407967	0.033623416	0.00066445424	0.00022717856
0.1942766	0.0354723	0.00070387329	0.0002271843
0.19447355	0.055946793	0.0011024069	0.00022717856
0.19467048	0.040824417	0.00080850133	0.00022717856
0.19486742	0.046677217	0.00092406484	0.0002271664
0.19506435	0.034962256	0.00069268438	0.0002271664
0.19526128	0.046270441	0.0009198247	0.0002271664
0.19545822	0.040736388	0.0008018238	0.0002271664
0.19565515	0.042851422	0.00085294445	0.0002271664
0.19585209	0.03809524	0.00075448252	0.0002271664
0.19604902	0.041567694	0.00082290237	0.0002271664
0.19624595	0.043824703	0.00087071664	0.00022717213
0.1964429	0.040977146	0.00080924609	0.00022717856
0.19663984	0.043669872	0.00086973485	0.0002271664
0.19683677	0.03595417	0.00071052165	0.0002271664
0.1970337	0.037140574	0.00073732791	0.0002271664
0.19723064	0.038537942	0.00076408731	0.0002271664
0.19742757	0.036934074	0.00073161471	0.0002271664
0.1976245	0.030509835	0.00060674531	0.00022715423
0.19782144	0.044338875	0.00087765098	0.0002271664
0.19801837	0.042731628	0.00084921974	0.0002271664
0.19821531	0.032309532	0.00064102415	0.00022715998
0.19841225	0.040605094	0.00080555613	0.0002271664
0.19860919	0.042834267	0.00085265806	0.00022715423
0.19880612	0.051129609	0.0010135539	0.00022715423
0.19900306	0.043827906	0.00087431207	0.00022715423
0.19919999	0.043478262	0.0008636486	0.00022715423
0.19939692	0.049003985	0.00097342581	0.00022715423
0.19959386	0.051612902	0.001031992	0.0002271664
0.19979079	0.0441879	0.00087740744	0.00022715423
0.19998772	0.033667333	0.00066945818	0.00022715423
0.20018466	0.036283892	0.00071979087	0.00022715998
0.20038161	0.034579813	0.00068883639	0.00022715423
0.20057854	0.041616648	0.00082818896	0.00022715423
0.20077547	0.04194966	0.00083396648	0.00022715423
0.20097241	0.037454691	0.00074722781	0.00022715423
0.20116934	0.039536741	0.0007857731	0.00022715423
0.20136628	0.035814889	0.00071391359	0.00022714208
0.20156321	0.042433947	0.00084471778	0.00022715423
0.20176014	0.038694076	0.00077251438	0.00022714208
0.20195708	0.038030423	0.00075637054	0.00022715423
0.20215401	0.044925794	0.00089528144	0.00022715998
0.20235096	0.043898512	0.00087582925	0.00022714208
0.20254789	0.041616648	0.0008278793	0.00022714208
0.20274483	0.042596348	0.00085348415	0.00022714208
0.20294176	0.045218088	0.00089992845	0.00022714208
0.20313869	0.041632984	0.00083232543	0.00022714208
0.20333563	0.042020202	0.00083979481	0.00022714208
0.20353256	0.041816011	0.00082998362	0.00022712992
0.2037295	0.04752234	0.00095279078	0.00022712992
0.20392643	0.044853825	0.00089291489	0.00022714208
0.20412336	0.04991883	0.001000615	0.00022714782
0.20432031	0.053204354	0.0010631445	0.00022714208
0.20451725	0.052526064	0.0010468639	0.00022714208
0.20471418	0.058489032	0.0011737705	0.00022712992
0.20491111	0.05397841	0.001075027	0.00022714208
0.20510805	0.057700124	0.0011585483	0.00022712992
0.20530498	0.06260097	0.0012534201	0.00022712992
0.20550191	0.050983541	0.0010166677	0.00022712992
0.20569885	0.063265309	0.0012728939	0.00022712992
0.20589578	0.060144346	0.0011996391	0.00022712992
0.20609272	0.061099797	0.0012283972	0.00022713565
0.20628966	0.060862556	0.0012176118	0.00022712992
0.2064866	0.062068965	0.0012453569	0.00022711777
0.20668353	0.058536585	0.0011752024	0.00022712992
0.20688047	0.056809027	0.0011355496	0.00022712992
0.2070774	0.057941653	0.0011612118	0.00022711777
0.20727433	0.05557793	0.001110415	0.00022711777
0.20747127	0.05743381	0.0011544538	0.00022711777
0.2076682	0.049147036	0.00098564452	0.00022712992
0.20786513	0.054971706	0.0011000877	0.00022712992
0.20806207	0.042345278	0.00084940111	0.0002271235
0.20825902	0.055712555	0.0011139208	0.00022711777
0.20845595	0.042379789	0.00085059908	0.00022711777
0.20865288	0.041212123	0.00082368997	0.00022711777
0.20884982	0.040016335	0.00080388301	0.00022711777
0.20904675	0.040683482	0.00081590196	0.00022711777
0.20924369	0.05070994	0.0010168296	0.0002271056
0.20944062	0.049412716	0.00098948157	0.00022711777
0.20963755	0.04580462	0.00091713405	0.00022711777
0.20983449	0.048519738	0.00097889709	0.00022711777
0.21003142	0.046266235	0.00092714193	0.00022711133
0.21022837	0.045602605	0.00091551774	0.00022711777
0.2104253	0.048899755	0.00098250876	0.00022711777
0.21062224	0.042321645	0.0008450076	0.0002271056
0.21081917	0.048619695	0.00098178163	0.0002271056
0.2110161	0.049797572	0.00099750329	0.0002271056
0.21121304	0.041123778	0.00082545134	0.0002271056
0.21140997	0.036689769	0.00073635497	0.0002271056
0.2116069	0.03390523	0.000680967	0.0002271056
0.21180384	0.037658617	0.00075736782	0.0002271056
0.21200077	0.031111112	0.00062098348	0.00022711133
0.21219772	0.034156378	0.00068824447	0.00022709343
0.21239465	0.028348397	0.00056944625	0.0002271056
0.21259159	0.037367992	0.00074816844	0.0002271056
0.21278852	0.033877552	0.00068003318	0.0002271056
0.21298546	0.032467533	0.00064928469	0.00022709343
0.21318239	0.035066005	0.00070737978	0.00022709343
0.21337932	0.033685066	0.00067384809	0.00022709343
0.21357626	0.03351042	0.00067281327	0.0002271056
0.21377319	0.028064383	0.00056529959	0.0002271056
0.21397012	0.037444036	0.00075090298	0.00022709918
0.21416707	0.030241111	0.00060709164	0.00022709343
0.21436401	0.03098247	0.00062111882	0.00022709343
0.21456094	0.030402629	0.00061162229	0.00022709343
0.21475787	0.032840721	0.00066093192	0.00022708128
0.21495481	0.040049039	0.00080427487	0.00022709343
0.21515174	0.036870137	0.0007411429	0.00022709343
0.21534868	0.038886614	0.00078223535	0.00022708128
0.21554561	0.042815972	0.0008644936	0.00022709343
0.21574254	0.037990198	0.00076340156	0.00022708128
0.21593948	0.038271606	0.00077171996	0.00022709918
0.21613643	0.036124796	0.0007269528	0.00022708128
0.21633336	0.0401804	0.00080866215	0.00022708128
0.21653029	0.030813476	0.0006198475	0.00022708128
0.21672723	0.035903715	0.00072038308	0.00022709343
0.21692416	0.039999999	0.00080720353	0.00022708128
0.21712109	0.039014373	0.00078609399	0.00022708128
0.21731803	0.046406571	0.00093527487	0.00022708128
0.21751496	0.040345822	0.00081426214	0.00022708128
0.2177119	0.043991853	0.00088354159	0.00022708128
0.21790883	0.04570004	0.00092682068	0.00022708702
0.21810578	0.047794119	0.00096140278	0.00022708128
0.21830271	0.038842976	0.0007847377	0.00022708128
0.21849965	0.037037037	0.00074664882	0.00022706912
0.21869658	0.03846154	0.00077329401	0.00022708128
0.21889351	0.042703152	0.0008647099	0.00022706912
0.21909045	0.045063499	0.00090714247	0.00022706912
0.21928738	0.02476269	0.00049839064	0.00022706912
0.21948431	0.0330033	0.00066553004	0.00022706912
0.21968125	0.039457459	0.00079540373	0.00022706912
0.21987818	0.033429634	0.00067423331	0.00022707487
0.22007513	0.039295949	0.00079009018	0.00022706912
0.22027206	0.034425549	0.00069629471	0.00022706912
0.220469	0.037356321	0.00075212592	0.00022706912
0.22066593	0.032284766	0.00065197423	0.00022705697
0.22086287	0.031288598	0.00063034828	0.00022705697
0.2210598	0.035022661	0.00070656376	0.00022705697
0.22125673	0.029788995	0.00060111831	0.00022705697
0.22145367	0.038429752	0.00077678164	0.00022705697
0.2216506	0.046694215	0.00094435905	0.00022706912
0.22184753	0.041152265	0.00082987844	0.00022707487
0.22204448	0.042323653	0.00085740862	0.00022705697
0.22224142	0.037953794	0.00076583272	0.00022705697
0.22243835	0.043298971	0.00087445043	0.00022705697
0.22263528	0.037728027	0.0007634745	0.00022705697
0.22283222	0.045641448	0.00092007854	0.00022704482
0.22302915	0.034138218	0.0006909761	0.00022705697
0.22322609	0.026848409	0.00054090575	0.00022704482
0.22342302	0.032059185	0.00064536725	0.00022704482
0.22361995	0.03445413	0.00069746998	0.00022705697
0.22381689	0.033856317	0.00068315573	0.0002270627
0.22401384	0.031315241	0.000634822	0.00022704482
0.22421077	0.029218107	0.00058841443	0.00022704482
0.2244077	0.027743271	0.00056030613	0.00022704482
0.22460464	0.026217228	0.0005301279	0.00022704482
0.22480157	0.028336756	0.00056982547	0.00022704482
0.2249985	0.037316561	0.00075938477	0.00022704482
0.22519544	0.034426231	0.00069222372	0.00022704482
0.22539237	0.02952183	0.00059725327	0.00022704482
0.22558931	0.032204099	0.00065377436	0.00022704482
0.22578624	0.03351042	0.00067281327	0.00022703838
0.22598319	0.024573095	0.00049674558	0.00022703265
0.22618012	0.03141794	0.0006340387	0.00022704482
0.22637706	0.028463792	0.00057766616	0.00022704482
0.22657399	0.029423954	0.00059428514	0.00022703265
0.22677092	0.034825869	0.00070401025	0.00022703265
0.22696786	0.026533997	0.00053574849	0.00022703265
0.22716479	0.035610765	0.00072017021	0.00022704482
0.22736172	0.039314095	0.00079905981	0.00022703265
0.22755866	0.037603308	0.00075959833	0.00022703265
0.22775559	0.026326787	0.00053400191	0.00022703265
0.22795253	0.029436152	0.00059465476	0.00022703838
0.22814947	0.034053154	0.00068933086	0.00022703265
0.22834641	0.048507463	0.00098264706	0.00022703265
0.22854334	0.029912755	0.00060475024	0.0002270205
0.22874027	0.03236654	0.00065906619	0.00022703265
0.22893721	0.036318615	0.0007330997	0.00022703265
0.22913414	0.037853576	0.00076710153	0.0002270205
0.22933108	0.038621262	0.00078222988	0.0002270205
0.22952801	0.036265109	0.00073560944	0.0002270205
0.22972494	0.030403998	0.00061588432	0.0002270205
0.22992188	0.032752901	0.00066205033	0.00022703838
0.23011883	0.03465765	0.00070776971	0.0002270205
0.23031576	0.040462427	0.00081770908	0.0002270205
0.23051269	0.039533917	0.00080185058	0.0002270205
0.23070963	0.038333334	0.00077781582	0.0002270205
0.23090656	0.023217248	0.00046844478	0.00022700834
0.23110349	0.03649329	0.00074276282	0.00022700834
0.23130043	0.042970378	0.00087309012	0.0002270205
0.23149736	0.038685523	0.00078436692	0.0002270205
0.2316943	0.039682541	0.00080610585	0.0002270205
0.23189123	0.035699461	0.0007222686	0.00022701408
0.23208818	0.041911148	0.00085277	0.00022700834
0.23228511	0.030391341	0.0006151477	0.00022700834
0.23248205	0.026326787	0.00053304405	0.00022700834
0.23267898	0.02764977	0.00056174735	0.00022700834
0.23287591	0.03449709	0.00069836382	0.00022700834
0.23307285	0.037222918	0.00075594703	0.00022700834
0.23326978	0.037531275	0.00076136028	0.00022700834
0.23346671	0.03881469	0.00078756071	0.00022700834
0.23366365	0.037005886	0.00075400993	0.00022700834
0.23386058	0.035893153	0.00072825549	0.00022701408
0.23405753	0.035094962	0.00070815685	0.00022699618
0.23425446	0.031973075	0.00065103406	0.00022700834
0.2344514	0.034815438	0.00070784579	0.00022699618
0.23464833	0.031341411	0.00063527346	0.00022699618
0.23484527	0.04138796	0.00084143638	0.00022700834
0.2350422	0.033026755	0.00067015406	0.00022700834
0.23523913	0.040739186	0.00083031005	0.00022699618
0.23543607	0.035803497	0.00072582654	0.00022699618
0.235633	0.038879599	0.00078962982	0.00022699618
0.23582993	0.039379977	0.00080061023	0.00022700192
0.23602688	0.027368421	0.00055656437	0.00022698403
0.23622382	0.025010422	0.00050574611	0.00022699618
0.23642075	0.030884808	0.00062623218	0.00022699618
0.23661768	0.031014251	0.0006302906	0.00022698403
0.23681462	0.043771043	0.00089308311	0.00022698403
0.23701155	0.042624321	0.00086656265	0.00022699618
0.23720849	0.052631579	0.0010712895	0.00022698403
0.23740542	0.041981529	0.00085578469	0.00022699618
0.23760235	0.042348009	0.00086233282	0.00022698403
0.23779929	0.03443931	0.00070077379	0.00022698977
0.23799624	0.043823037	0.00089004968	0.00022698403
0.23819317	0.044976883	0.00091711298	0.00022698403
0.2383901	0.048698574	0.000992883	0.00022698403
0.23858704	0.036447424	0.00074106507	0.00022698403
0.23878397	0.037300922	0.00075842196	0.00022698403
0.2389809	0.039429531	0.00080267427	0.00022697187
0.23917784	0.040773433	0.00083073159	0.00022697187
0.23937477	0.03833193	0.00078169006	0.00022698403
0.23957171	0.034757119	0.00070658786	0.00022697187
0.23976864	0.037948292	0.00077045371	0.00022697762
0.23996559	0.032000002	0.00065174216	0.00022697187
0.24016252	0.033840947	0.00069092162	0.00022697187
0.24035946	0.029399233	0.00060166261	0.00022697187
0.24055639	0.031276416	0.00063865533	0.00022697187
0.24075332	0.03705281	0.0007598112	0.00022697187
0.24095026	0.034749035	0.00071487797	0.00022697187
0.24114719	0.034042552	0.00069721643	0.00022697187
0.24134412	0.026980728	0.00055388245	0.00022697187
0.24154106	0.030629853	0.00063081429	0.00022697187
0.24173799	0.031506259	0.00065017818	0.00022696547
0.24193494	0.036024306	0.00074591418	0.00022697187
0.24213187	0.039156627	0.00080735178	0.00022695972
0.24232881	0.036292087	0.00075369317	0.00022697187
0.24252574	0.028858768	0.00059857755	0.00022695972
0.24272268	0.022707423	0.0004696784	0.00022695972
0.24291961	0.025979744	0.00054032612	0.00022695972
0.24311654	0.027850304	0.00057582499	0.00022695972
0.24331348	0.026654821	0.00055612752	0.00022695972
0.24351041	0.031746034	0.00066171592	0.00022695972
0.24370734	0.033450704	0.0006970567	0.00022696547
0.24390429	0.036476869	0.00076469139	0.00022695972
0.24410123	0.029964222	0.00062878517	0.00022695972
0.24429816	0.028419184	0.00059385545	0.00022694757
0.24449509	0.028780265	0.00061021867	0.00022694757
0.24469203	0.026267281	0.0005585131	0.00022695972
0.24488896	0.032333646	0.00069456245	0.00022694757
0.2450859	0.023037141	0.00049408298	0.00022694757
0.24528283	0.026975865	0.00058145047	0.00022694757
0.24547976	0.02479733	0.00053559517	0.00022694757
0.2456767	0.027911453	0.00060640328	0.0002269533
0.24587364	0.027898028	0.00060559815	0.00022694757
0.24607058	0.031568721	0.00068851159	0.0002269354
0.24626751	0.028100776	0.00061295589	0.00022694757
0.24646445	0.02855736	0.00062757754	0.00022694757
0.24666138	0.022113021	0.00048434362	0.00022694757
0.24685831	0.022693636	0.00049842725	0.0002269354
0.24705525	0.035767511	0.00079075538	0.0002269354
0.24725218	0.025961058	0.00057265745	0.0002269354
0.24744911	0.031171443	0.00069290388	0.00022694757
0.24764605	0.031984009	0.00070869428	0.00022694115
0.247843	0.029204432	0.00064863783	0.0002269354
0.24803993	0.036298569	0.00081432657	0.0002269354
0.24823686	0.037416708	0.00084021623	0.0002269354
0.2484338	0.041751526	0.00093404466	0.00022692325
0.24863073	0.038065843	0.00085628801	0.0002269354
0.24882767	0.025205761	0.00056451472	0.00022692325
0.2490246	0.029487843	0.0006643355	0.00022692325
0.24922153	0.026123302	0.00058981718	0.00022692325
0.24941847	0.034769069	0.00078543072	0.00022692325
0.2496154	0.026357407	0.00059825502	0.000226929
0.24981235	0.032206971	0.00073274533	0.00022692965
0.25000927	0.028720627	0.0006480731	0.00022692325
0.2502062	0.024533333	0.00055944617	0.0002269354
0.25040314	0.029131357	0.00066382129	0.0002269111
0.25060007	0.026500812	0.00060962269	0.0002269226
0.25079703	0.034722224	0.00079538359	0.0002269111
0.25099397	0.027404621	0.00062818121	0.0002269111
0.2511909	0.030385241	0.00070071343	0.0002269111
0.25138783	0.02907916	0.0006680027	0.0002269111
0.25158477	0.034877386	0.00080762355	0.0002269111
0.2517817	0.037663754	0.0008723035	0.0002269111
0.25197864	0.033972602	0.00078755367	0.0002269111
0.25217557	0.034903046	0.00081249443	0.0002269111
0.2523725	0.031284302	0.00072574354	0.0002269111
0.25256944	0.024458032	0.00056900282	0.0002269111
0.25276637	0.026651859	0.00062078511	0.0002269111
0.2529633	0.025683975	0.00059897889	0.0002268868
0.25316024	0.029842343	0.00070084858	0.0002269111
0.25335717	0.036952816	0.00087347155	0.0002269111
0.25355411	0.03222027	0.00077243603	0.0002269111
0.25375104	0.033694346	0.00081773364	0.0002269111
0.25394797	0.029589372	0.00071742595	0.0002268868
0.25414491	0.027641278	0.00067521731	0.0002269111
0.25434184	0.022137888	0.00054753944	0.0002269111
0.25453877	0.022135416	0.00055561698	0.0002269226
0.25473574	0.017461384	0.00044250698	0.0002268868
0.25493267	0.028610354	0.00073760375	0.0002269111
0.25512961	0.025730181	0.00066548865	0.0002269111
0.25532654	0.030518098	0.00079978164	0.0002269111
0.25552347	0.026219957	0.00069352577	0.0002268868
0.25572041	0.03560606	0.00096856337	0.0002269111
0.25591734	0.03160454	0.00088723883	0.0002269111
0.25611427	0.022355976	0.00063912343	0.0002268868
0.25631121	0.028310502	0.00084201281	0.0002268868
0.25650814	0.032045241	0.00096794922	0.0002268868
0.25670508	0.035818007	0.0010997955	0.0002268868
0.25690201	0.042283297	0.0013564311	0.0002268868
0.25709894	0.034792367	0.0011472782	0.0002268868
0.25729588	0.028335301	0.00095367624	0.0002268868
0.25749281	0.025179856	0.00084937521	0.0002268868
0.25768974	0.035220128	0.0012208812	0.0002268868
0.25788668	0.043984476	0.0015540123	0.0002268868
0.25808361	0.030707611	0.0010959296	0.0002268868
0.25828055	0.035567716	0.0012868783	0.0002268868
0.25847748	0.034334764	0.0012722271	0.00022689829
0.25867444	0.055312954	0.0020794345	0.00022686248
0.25887138	0.039755352	0.0015208344	0.00022686248
0.25906831	0.040123455	0.001544402	0.00022686248
0.25926524	0.034865294	0.0013571297	0.0002268868
0.25946218	0.03846154	0.0015395256	0.00022686248
0.25965911	0.039049234	0.0015687288	0.0002268868
0.25985605	0.038128249	0.0015487876	0.0002268868
0.26005298	0.052083332	0.0021330619	0.00022686248
0.26024991	0.043706294	0.0017861134	0.00022686248
0.26044685	0.046428572	0.0019107157	0.0002268868
0.26064378	0.028520498	0.0011620682	0.00022686248
0.26084071	0.03057554	0.0012451439	0.00022686248
0.26103765	0.034990791	0.0014586127	0.00022686248
0.26123458	0.03888889	0.0016268912	0.00022686248
0.26143152	0.033962265	0.0014256068	0.0002268868
0.26162845	0.020332716	0.0008266425	0.00022686248
0.26182538	0.030592734	0.0012910753	0.00022686248
0.26202232	0.035225049	0.0015108829	0.00022686248
0.26221925	0.031746034	0.0013648155	0.00022686248
0.26241618	0.015296367	0.00062626344	0.00022684968
0.26261315	0.013888889	0.0005595198	0.00022683818
0.26281008	0.028455285	0.0012306382	0.00022686248
0.26300701	0.024640657	0.0010620002	0.00022686248
0.26320395	0.044265594	0.0019418861	0.00022683818
0.26340088	0.040169135	0.0017943507	0.00022686248
0.26359782	0.033472802	0.0014839475	0.00022683818
0.26379475	0.034188036	0.0015317973	0.00022686248
0.26399168	0.036324788	0.0016247166	0.00022683818
0.26418862	0.030434782	0.0013688994	0.00022683818
0.26438555	0.031319909	0.0014212199	0.00022683818
0.26458248	0.029748283	0.0013687926	0.00022683818
0.26477942	0.049327355	0.0022746671	0.00022683818
0.26497635	0.034965035	0.0016327904	0.00022686248
0.26517329	0.046620045	0.002196406	0.00022683818
0.26537022	0.019559903	0.00090581732	0.00022683818
0.26556715	0.033653848	0.0015831384	0.00022683818
0.26576409	0.014851485	0.00067534664	0.00022683818
0.26596102	0.025252525	0.0012053899	0.00022683818
0.26615795	0.044041451	0.0021775432	0.00022683818
0.26635489	0.028132992	0.0013582737	0.00022684968
0.26655185	0.04509284	0.0022560523	0.00022681388
0.26674879	0.024657534	0.001218492	0.00022683818
0.26694572	0.024324324	0.0011938544	0.00022683818
0.26714265	0.049315069	0.0025119856	0.00022681388
0.26733959	0.053672317	0.0027804971	0.00022681388
0.26753652	0.039999999	0.0020632646	0.00022681388
0.26773345	0.042296074	0.0022436273	0.00022683818
0.26793039	0.038805969	0.0020400661	0.00022683818
0.26812732	0.029585799	0.0015289371	0.00022683818
0.26832426	0.037500001	0.0020102109	0.00022683818
0.26852119	0.01904762	0.00098126254	0.00022683818
0.26871812	0.025723472	0.0013666357	0.00022683818
0.26891506	0.01607717	0.00081672106	0.00022681388
0.26911199	0.033670034	0.0018566026	0.00022683818
0.26930892	0.026845638	0.0014308773	0.00022683818
0.26950586	0.031141868	0.0017301039	0.00022683818
0.26970279	0.010309278	0.00049429206	0.00022681388
0.26989973	0.0072463769	0.00030898655	0.00022681388
0.27009666	0.011235955	0.00056250131	0.00022681388
0.27029359	0.015267176	0.00081840652	0.00022684968
0.27049056	0.0073260074	0.00031409998	0.00022681388
0.27068749	0.0038910506	0	0.00022681388
0.27088442	0.0080321282	0.00036065321	0.00022681388
0.27108136	0.0083682006	0.00038355586	0.00022681388
0.27127829	0.0084033618	0.00038597916	0.00022681388
0.27147523	0.021276595	0.0014682246	0.00022681388
0.27167216	0.03409091	0.0029842372	0.00022681388
0.27186909	0	0	0.00022681388
0.27206603	0	0	0.00022681388
0.27226296	0	0	0.00022681388
