#   DataFileName=PAL30_125C_WAXS_08172017.tif
#   DataFileType=.tif
#   
#   DataFilePath=E:DATA:PAL30_08262017:
#   
#   Processed on=Wed, Jan 16, 2019,2:42:45 AM
#   Units=Arbitrary
#   SampleThickness=1
#   SampleTransmission=1
#   CorrectionFactor=1
#   SampleMeasurementTime=1
#   EmptyMeasurementTime=1
#   BackgroundMeasTime=1
#   SampleI0=1
#   EmptyI0=1
#   Nika_SampleToDetectorDistacne=1552.1
#   Nika_Wavelength=1.54
#   Nika_XrayEnergy=8.0509
#   Nika_PixelSizeX=0.075
#   Nika_PixelSizeY=0.075
#   Nika_HorizontalTilt=0
#   Nika_VerticalTilt=0
#   Nika_BeamCenterX=1540.3
#   Nika_BeamCenterY=830.17
#   Nika_BeamSizeX=0
#   Nika_BeamCenterY=830.17
#   CalibrationFormula=1*((Sa2D))
#   CurrentMaskFileName=PAL30_30C_WAXS_mask.hdf
#   QvectorMaxNumPnts=1
#   QvectorNumberPoints=1383
#   CircularAverage=1
#   PolarizationCorrection=None
#   UncertainityCalculationMethod=OldNikaMethod

0.0060065244	6	3.6742346	0.00022756745
0.00620346	4.2800002	0.84876382	0.00022756765
0.0064003952	2.8245614	0.37191033	0.00022756765
0.0065973303	3.5374999	0.39457858	0.00022756765
0.0067942655	4.9693875	0.49758646	0.00022756765
0.0069912006	6.5233645	0.61440378	0.00022756745
0.0071881362	8.1557379	0.71717894	0.00022756727
0.0073850714	8.5343513	0.7284047	0.00022756727
0.0075820065	8.9103451	0.72476578	0.00022756727
0.0077789417	8.2108841	0.66543841	0.00022756745
0.0079758773	7.3734179	0.57632381	0.00022756746
0.0081728119	6.5214725	0.50206292	0.00022756707
0.0083697475	5.6853933	0.41905278	0.00022756671
0.0085666822	4.7150259	0.33418936	0.00022756783
0.0087636178	4.3487182	0.30699763	0.00022756783
0.0089605534	3.8009479	0.25761747	0.00022756746
0.0091574881	3.4235809	0.22326629	0.00022756707
0.0093544237	3.108	0.19428924	0.00022756671
0.0095513584	2.8631179	0.17463119	0.00022756707
0.009748294	2.7830882	0.16692217	0.00022756707
0.0099452296	2.3285198	0.13814421	0.00022756595
0.010142164	2.266187	0.13436794	0.00022756707
0.0103391	1.989899	0.11403933	0.00022756671
0.010536035	1.9661016	0.11341476	0.00022756707
0.01073297	1.6480263	0.093568169	0.00022756783
0.010929906	1.5530547	0.087226808	0.00022756746
0.01112684	1.5015974	0.0838819	0.00022756783
0.011323776	1.4307228	0.077822424	0.00022756746
0.011520711	1.277439	0.069995157	0.00022756707
0.011717646	1.2159764	0.065484613	0.00022756707
0.011914582	1.1520468	0.061785933	0.00022756746
0.012111517	0.99710143	0.053310741	0.00022756783
0.012308452	0.90659338	0.047101598	0.00022756671
0.012505387	0.92090398	0.048507594	0.00022756783
0.012702323	0.83333331	0.04256814	0.00022756783
0.012899258	0.88739944	0.045521688	0.00022756671
0.013096193	0.89790577	0.045576669	0.00022756707
0.013293128	0.7647059	0.038373224	0.00022756671
0.013490063	0.72680414	0.036547564	0.00022756707
0.013686999	0.70098037	0.034442954	0.00022756707
0.013883934	0.63503647	0.031079413	0.00022756671
0.014080869	0.60765553	0.029530149	0.00022756707
0.014277805	0.60705882	0.029267572	0.00022756671
0.014474739	0.59574467	0.028766554	0.0002275663
0.014671675	0.54176074	0.025598813	0.00022756707
0.014868611	0.52499998	0.024870474	0.00022756671
0.015065545	0.48791209	0.02272254	0.0002275663
0.015262481	0.41201717	0.018942347	0.00022756671
0.015459416	0.43736264	0.020336635	0.00022756595
0.01565635	0.47761193	0.021900468	0.00022756707
0.015853286	0.42250532	0.019351671	0.00022756554
0.016050221	0.47835052	0.021606233	0.00022756707
0.016247157	0.37854251	0.016941834	0.00022756707
0.016444093	0.38999999	0.0173568	0.00022756483
0.016641026	0.39759037	0.017678559	0.00022756707
0.016837962	0.31462926	0.013995826	0.00022756707
0.017034898	0.30739298	0.013462014	0.00022756554
0.017231833	0.36711282	0.015972788	0.00022756554
0.017428769	0.31499052	0.013647742	0.00022756483
0.017625703	0.30093458	0.012934747	0.00022756554
0.017822638	0.29236498	0.012545232	0.00022756554
0.018019574	0.27022058	0.011536284	0.00022756554
0.018216509	0.22810219	0.0096856132	0.00022756554
0.018413445	0.28980321	0.012190972	0.00022756483
0.018610379	0.2508834	0.010476461	0.00022756554
0.018807314	0.21291448	0.0088279238	0.00022756554
0.01900425	0.2322357	0.0096078031	0.00022756554
0.019201186	0.23601398	0.0098189916	0.00022756554
0.019398121	0.22110553	0.0090078423	0.00022756483
0.019595055	0.23728813	0.009713728	0.00022756554
0.019791991	0.19173554	0.0077562528	0.00022756554
0.019988926	0.19834711	0.008016645	0.00022756554
0.020185862	0.20424837	0.0082155373	0.00022756554
0.020382797	0.17197452	0.0068183606	0.00022756483
0.020579731	0.15857606	0.0063373297	0.00022756403
0.020776667	0.19592476	0.0077152299	0.00022756403
0.020973602	0.19561815	0.0076916288	0.00022756554
0.021170538	0.1828125	0.0071786596	0.00022756403
0.021367474	0.16440423	0.0063484753	0.0002275633
0.021564407	0.16873065	0.0066025346	0.00022756403
0.021761343	0.15396114	0.0059172171	0.00022756403
0.021958278	0.17194571	0.0066395244	0.00022756403
0.022155214	0.16740088	0.0063828728	0.00022756403
0.02235215	0.14680232	0.0055642263	0.0002275633
0.022549083	0.17180617	0.0065500909	0.00022756403
0.022746019	0.16737589	0.0062682214	0.00022756403
0.022942955	0.15064563	0.0056699258	0.00022756403
0.02313989	0.17538896	0.0065595089	0.00022756403
0.023336826	0.15062761	0.0055904761	0.0002275633
0.02353376	0.13361463	0.0049835355	0.00022756403
0.023730695	0.12483039	0.0045713116	0.00022756403
0.023927631	0.1462069	0.0053958837	0.0002275625
0.024124566	0.12466488	0.0045374329	0.00022756403
0.024321502	0.12466488	0.0045400904	0.00022756179
0.024518436	0.13691275	0.0049899486	0.0002275625
0.024715371	0.10540184	0.003801354	0.0002275625
0.024912307	0.12813738	0.0046297503	0.0002275625
0.025109243	0.11253197	0.0039964379	0.0002275625
0.025306178	0.10478655	0.0037404713	0.00022756179
0.025503112	0.13409962	0.0047685676	0.0002275625
0.025700048	0.12198221	0.0043234923	0.0002275625
0.025896983	0.10305344	0.0036514089	0.0002275625
0.026093919	0.11576355	0.0040382366	0.00022756097
0.026290854	0.10545906	0.003693979	0.00022756179
0.026487788	0.11219512	0.0038953226	0.0002275625
0.026684724	0.083129585	0.0028843363	0.00022756097
0.026881659	0.10353228	0.0035921591	0.0002275625
0.027078595	0.10381862	0.0035663822	0.00022756097
0.027275531	0.077015646	0.0026503108	0.00022756179
0.027472464	0.10128056	0.0034349742	0.00022756097
0.0276694	0.10520095	0.0035935757	0.00022756097
0.027866336	0.087006964	0.0029427004	0.00022756097
0.028063271	0.094186045	0.0031912227	0.00022756097
0.028260207	0.10489511	0.0035600711	0.00022756026
0.028457141	0.090909094	0.0030274761	0.00022756097
0.028654076	0.079455167	0.0026548244	0.00022756097
0.028851012	0.071588367	0.0023750549	0.00022756097
0.029047947	0.091825306	0.0030534328	0.00022756097
0.029244883	0.095613047	0.0031882937	0.00022756026
0.029441817	0.095860563	0.0031455008	0.00022756097
0.029638752	0.08791209	0.0028952854	0.00022755946
0.029835688	0.088457391	0.0028847577	0.00022756097
0.030032624	0.10430107	0.0034024939	0.00022755946
0.030229559	0.075757578	0.0024746901	0.00022755875
0.030426493	0.087234043	0.0028268069	0.00022755946
0.030623429	0.088391908	0.0028661292	0.00022755946
0.030820364	0.10216718	0.0032654668	0.00022755946
0.0310173	0.087276548	0.002812861	0.00022755946
0.031214235	0.086099587	0.0027561344	0.00022755946
0.031411171	0.083162218	0.002649141	0.00022755875
0.031608105	0.10237849	0.0032756061	0.00022755571
0.031805038	0.08190091	0.0025874823	0.00022756017
0.032001976	0.074823052	0.002363424	0.00022755875
0.03219891	0.080402009	0.0025330049	0.00022756017
0.032395847	0.080919079	0.0025402927	0.00022755875
0.032592781	0.067527309	0.0021128471	0.00022755875
0.032789715	0.093933463	0.0029230961	0.00022756017
0.032986652	0.0817734	0.0025502208	0.00022755571
0.033183586	0.081791624	0.0025367944	0.00022755713
0.033380523	0.066473991	0.0020483639	0.00022755875
0.033577457	0.064547203	0.0019889525	0.00022755571
0.033774391	0.070543371	0.0021635171	0.00022755713
0.033971328	0.079198472	0.0024299666	0.00022755571
0.034168262	0.072847679	0.0022252244	0.00022756017
0.0343652	0.07728558	0.0023568012	0.00022755571
0.034562133	0.078922935	0.0023904729	0.00022755571
0.034759067	0.091836736	0.0027833621	0.00022756017
0.034956004	0.087037034	0.0026334368	0.00022755571
0.035152938	0.084931508	0.002553354	0.00022755713
0.035349876	0.081204377	0.0024386039	0.00022755571
0.035546809	0.072595283	0.0021727425	0.00022755571
0.035743743	0.066123188	0.0019739035	0.00022755713
0.035940681	0.069058299	0.0020552301	0.00022755571
0.036137614	0.076376557	0.0022622822	0.00022755713
0.036334552	0.073712252	0.0021840746	0.00022755266
0.036531486	0.064373896	0.0018989653	0.00022755266
0.036728419	0.06084656	0.0017937659	0.00022755713
0.036925357	0.083478265	0.002448238	0.00022755571
0.037122291	0.066898346	0.001958868	0.00022755713
0.037319228	0.078856155	0.0023086725	0.00022755571
0.037516162	0.06955047	0.002012803	0.00022755266
0.037713096	0.062553555	0.0018186212	0.00022755713
0.037910033	0.069846675	0.0020253737	0.00022755266
0.038106967	0.06446141	0.0018647573	0.00022755409
0.038303904	0.070042193	0.0020211784	0.00022755266
0.038500838	0.070715472	0.0020273544	0.00022755266
0.038697772	0.066942148	0.0019124399	0.00022755409
0.038894709	0.076158941	0.0021786254	0.00022755266
0.039091643	0.07526882	0.0021513172	0.00022755409
0.03928858	0.072131149	0.0020533786	0.00022755266
0.039485514	0.069049552	0.001956118	0.00022755266
0.039682448	0.061738424	0.0017484395	0.00022755409
0.039879385	0.073092371	0.0020604227	0.00022755266
0.040076319	0.052000001	0.0014596577	0.00022755409
0.040273257	0.05858748	0.0016490164	0.00022754962
0.04047019	0.049323786	0.0013786554	0.00022754962
0.040667124	0.073073871	0.0020482969	0.00022755409
0.040864062	0.070367478	0.0019561809	0.00022755266
0.041060995	0.066096425	0.0018327184	0.00022755409
0.041257933	0.06630265	0.0018410468	0.00022754962
0.041454867	0.052918289	0.0014659064	0.00022755266
0.0416518	0.0614786	0.0017045303	0.00022755409
0.041848738	0.055725191	0.0015290484	0.00022754962
0.042045671	0.059315588	0.0016255372	0.00022754801
0.042242609	0.055513307	0.0015197546	0.00022754657
0.042439543	0.061503418	0.0016843786	0.00022754353
0.042636476	0.068369649	0.0018639404	0.00022754801
0.042833414	0.060993977	0.0016634888	0.00022754657
0.043030348	0.065720685	0.0017862227	0.00022754801
0.043227285	0.066469721	0.0017961048	0.00022754353
0.043424219	0.048636697	0.0013101361	0.00022754353
0.043621153	0.05882353	0.0015849065	0.00022754801
0.04381809	0.057917889	0.0015573107	0.00022754353
0.044015024	0.055596195	0.0014932709	0.00022754495
0.044211961	0.061594203	0.0016481826	0.00022754353
0.044408895	0.071223021	0.0019005776	0.00022754353
0.044605829	0.068965517	0.0018392764	0.00022754495
0.044802766	0.072453372	0.001931049	0.00022754353
0.0449997	0.061384726	0.0016305634	0.00022754495
0.045196638	0.053003535	0.0013998679	0.00022754353
0.045393571	0.063829787	0.0016907812	0.00022754353
0.045590505	0.063069373	0.0016600286	0.00022754495
0.045787442	0.051192146	0.0013460236	0.00022754048
0.045984376	0.059027776	0.0015464452	0.00022754191
0.046181314	0.058292851	0.0015267615	0.00022754353
0.046378247	0.066298343	0.0017326414	0.00022754048
0.046575181	0.056629833	0.0014789393	0.00022754191
0.046772119	0.052090473	0.0013549622	0.00022754353
0.046969052	0.062627636	0.0016246891	0.00022754495
0.04716599	0.065439671	0.0016990823	0.00022754048
0.047362924	0.060646899	0.0015647031	0.00022754048
0.047559857	0.061662197	0.0015876374	0.00022754495
0.047756795	0.066487573	0.0017132914	0.00022754048
0.047953729	0.055667337	0.0014325831	0.00022754495
0.048150666	0.045122761	0.0011526393	0.00022754048
0.0483476	0.057730589	0.0014774685	0.00022754048
0.048544534	0.064833008	0.0016490417	0.00022754191
0.048741471	0.05800923	0.0014794415	0.00022753744
0.048938405	0.059934855	0.0015204711	0.00022754191
0.049135342	0.052424639	0.001332351	0.00022754048
0.049332276	0.058327932	0.0014752488	0.00022753744
0.04952921	0.062095731	0.0015698096	0.00022753887
0.049726147	0.065119281	0.0016443554	0.00022753744
0.049923081	0.0569981	0.0014225759	0.00022754191
0.050120018	0.058184143	0.0014620019	0.00022753744
0.050316952	0.04990403	0.0012522652	0.00022753744
0.050513886	0.059682541	0.0014940862	0.00022753887
0.050710823	0.05389981	0.0013468679	0.00022753744
0.050907757	0.065797642	0.0016292827	0.00022753887
0.051104695	0.056214865	0.0013952721	0.00022753744
0.051301628	0.046816479	0.0011592845	0.00022753744
0.051498562	0.056179777	0.0013944894	0.00022753887
0.0516955	0.050092764	0.0012362843	0.00022753744
0.051892433	0.053855568	0.0013226966	0.00022753887
0.052089371	0.058641974	0.0014472933	0.0002275344
0.052286305	0.058894962	0.0014415133	0.00022753744
0.052483238	0.046808511	0.0011441787	0.00022753583
0.052680176	0.038297873	0.00093461893	0.0002275344
0.052877109	0.051063828	0.0012493613	0.00022753887
0.053074047	0.059071731	0.0014413369	0.0002275344
0.053270981	0.05671642	0.0013764284	0.00022753744
0.053467914	0.037589498	0.00090833561	0.00022753887
0.053664852	0.047619049	0.0011646944	0.0002275344
0.053861786	0.060681116	0.0014985923	0.00022753583
0.054058723	0.067247823	0.0016683259	0.0002275344
0.054255657	0.06369821	0.0015745884	0.0002275344
0.054452591	0.034396499	0.00085000473	0.00022753583
0.054649528	0.058016218	0.0014393248	0.0002275344
0.054846462	0.063322887	0.0015748927	0.00022753583
0.055043399	0.056710776	0.0014137797	0.00022753136
0.055240333	0.053695515	0.001339781	0.0002275344
0.055437267	0.046628859	0.0011598994	0.00022753583
0.055634204	0.056320399	0.0013988534	0.00022753136
0.055831138	0.044965167	0.0011212215	0.00022753279
0.056028076	0.071743235	0.0017897856	0.00022753136
0.056225009	0.061314791	0.0015314455	0.00022753136
0.056421943	0.061901722	0.0015523201	0.00022753279
0.05661888	0.061596479	0.0015340946	0.00022753136
0.056815814	0.051539913	0.0012807638	0.00022753279
0.057012752	0.068354428	0.0017087932	0.00022753136
0.057209685	0.071969695	0.0017982684	0.00022752832
0.057406619	0.049873736	0.0012425259	0.00022753279
0.057603557	0.053695515	0.0013394044	0.00022753136
0.05780049	0.053797469	0.0013434107	0.00022753279
0.057997428	0.059045225	0.001468526	0.00022752832
0.058194362	0.058080807	0.0014494108	0.00022752832
0.058391295	0.068856604	0.0017198508	0.00022752974
0.058588233	0.053258147	0.0013217666	0.00022752832
0.058785167	0.056962024	0.0014206896	0.00022752974
0.058982104	0.057196733	0.0014238897	0.00022752832
0.059179038	0.062185928	0.0015484251	0.00022752832
0.059375972	0.048458152	0.0012054136	0.00022752974
0.059572909	0.05952381	0.0014792365	0.00022752528
0.059769843	0.047258981	0.0011766141	0.00022752974
0.05996678	0.052044611	0.0012855357	0.00022752528
0.060163714	0.062381852	0.0015549453	0.00022752528
0.060360648	0.042394016	0.0010478089	0.00022752974
0.060557585	0.040075142	0.00099378324	0.00022752528
0.060754519	0.054138146	0.0013406212	0.0002275267
0.060951456	0.053682897	0.0013309075	0.00022752528
0.06114839	0.049782202	0.0012317022	0.00022752528
0.061345324	0.052303862	0.0012953416	0.0002275267
0.061542261	0.05279503	0.0013056624	0.00022752528
0.061739195	0.06840796	0.0016958599	0.0002275267
0.061936133	0.067575946	0.0016730818	0.00022752528
0.062133066	0.050742574	0.0012522887	0.00022752528
0.06233	0.035692308	0.00087589404	0.00022752528
0.062526934	0.051297899	0.0012653691	0.0002275251
0.062723875	0.044665013	0.0011028879	0.00022751919
0.062920809	0.041307028	0.0010155125	0.00022752528
0.063117743	0.045877248	0.001133015	0.00022751919
0.063314676	0.052019585	0.0012762777	0.00022751919
0.06351161	0.050091632	0.0012277068	0.00022752814
0.063708551	0.062538318	0.0015383963	0.00022751919
0.063905485	0.05500618	0.0013575925	0.00022751919
0.064102419	0.046951219	0.0011496136	0.00022751919
0.064299352	0.04225352	0.0010358866	0.00022752528
0.064496286	0.037217814	0.00091002486	0.00022752205
0.064693227	0.05893074	0.0014431383	0.00022751919
0.064890161	0.061212122	0.0014978336	0.00022751919
0.065087095	0.040317655	0.00098666991	0.00022752528
0.065284029	0.052535124	0.0012893294	0.00022752528
0.065480962	0.039346248	0.00095947972	0.00022752205
0.065677904	0.055354994	0.0013492096	0.00022752528
0.065874837	0.04537205	0.0011068396	0.00022751919
0.066071771	0.040939193	0.0009952056	0.00022751919
0.066268705	0.041717049	0.0010166522	0.00022751919
0.066465639	0.048163757	0.0011728612	0.00022752205
0.06666258	0.045508981	0.0011046623	0.00022751919
0.066859514	0.043004241	0.00104888	0.00022751919
0.067056447	0.045778833	0.0011071959	0.00022751919
0.067253381	0.05319785	0.0012906897	0.00022751919
0.067450315	0.049611475	0.0012043614	0.00022751596
0.067647256	0.053892214	0.0013101733	0.00022751919
0.06784419	0.04796163	0.0011649292	0.00022751919
0.068041123	0.03846154	0.00092684763	0.00022751311
0.068238057	0.040308241	0.0009722829	0.00022751311
0.068434991	0.04812834	0.0011648058	0.00022752205
0.068631932	0.048463356	0.0011697364	0.00022751311
0.068828866	0.044258375	0.0010735642	0.00022751311
0.0690258	0.056691993	0.0013610857	0.00022751311
0.069222733	0.047815822	0.0011534767	0.00022751311
0.069419667	0.046690308	0.0011271077	0.00022751596
0.069616608	0.036342323	0.00087162456	0.00022751311
0.069813542	0.050499119	0.0012150937	0.00022751311
0.070010476	0.050058894	0.0012059779	0.00022751311
0.07020741	0.047253396	0.0011395784	0.00022751311
0.070404343	0.046216059	0.0011031275	0.00022752205
0.070601285	0.044950381	0.0010772712	0.00022751311
0.070798218	0.039511912	0.00094464718	0.00022751311
0.070995152	0.046920821	0.0011284613	0.00022751311
0.071192086	0.05078809	0.0012176166	0.00022751311
0.071389019	0.053509783	0.001274744	0.00022751596
0.071585961	0.045243621	0.0010811562	0.00022750701
0.071782894	0.050289016	0.0012016412	0.00022751311
0.071979828	0.055716772	0.001333607	0.00022751311
0.072176762	0.056484152	0.00134837	0.00022751311
0.072373696	0.051002864	0.0012133305	0.00022751596
0.072570637	0.055072464	0.0013180438	0.00022751311
0.072767571	0.046048891	0.001089448	0.00022750701
0.072964504	0.053240743	0.0012712672	0.00022750701
0.073161438	0.046564452	0.0011016522	0.00022751311
0.073358372	0.05491991	0.0013056681	0.00022750988
0.073555313	0.054723501	0.0013042147	0.00022750701
0.073752247	0.051441491	0.0012150352	0.00022751311
0.073949181	0.038812786	0.00091927696	0.00022750701
0.074146114	0.045274477	0.0010689032	0.00022751311
0.074343048	0.038790643	0.00091849035	0.00022750988
0.074539989	0.043157298	0.0010212139	0.00022750701
0.074736923	0.045835663	0.0010762103	0.00022750701
0.074933857	0.047239613	0.0011188526	0.00022750701
0.07513079	0.034909911	0.00082059437	0.00022750701
0.075327724	0.04954955	0.001168013	0.0002275038
0.075524665	0.044507042	0.0010486272	0.00022750701
0.075721599	0.036191538	0.00084620592	0.00022750093
0.075918533	0.034346845	0.00080698635	0.00022750701
0.076115467	0.046446558	0.0010904698	0.00022750701
0.0763124	0.044109438	0.0010339305	0.00022750988
0.076509342	0.036707453	0.00085833768	0.00022750701
0.076706275	0.037756801	0.00088181603	0.00022750701
0.076903209	0.047085203	0.001106998	0.00022750701
0.077100143	0.043526173	0.0010141473	0.00022750093
0.077297077	0.04767184	0.0011149322	0.0002275038
0.077494018	0.0567297	0.0013303781	0.00022750093
0.077690952	0.047278725	0.0011017708	0.00022750093
0.077887885	0.042896938	0.0010048054	0.00022750093
0.078084819	0.050653595	0.0011745881	0.00022750093
0.078281753	0.051183268	0.0011925038	0.0002275038
0.078478694	0.045129333	0.0010515839	0.00022750093
0.078675628	0.039322775	0.00091084611	0.00022750093
0.078872561	0.045755237	0.0010668385	0.00022750093
0.079069495	0.046321526	0.0010737526	0.00022750093
0.079266429	0.046917621	0.0010888717	0.0002275038
0.07946337	0.037077427	0.00085962948	0.00022750093
0.079660304	0.047052462	0.0010866296	0.00022750093
0.079857238	0.034953576	0.00080886268	0.00022750093
0.080054171	0.048134126	0.0011123974	0.00022750093
0.080251105	0.044686649	0.0010364586	0.0002275038
0.080448046	0.038814016	0.00089427578	0.00022749485
0.08064498	0.040685225	0.00093406695	0.00022750093
0.080841914	0.044444446	0.0010278871	0.00022750093
0.081038848	0.054721031	0.001259478	0.00022749485
0.081235781	0.035714287	0.0008241178	0.00022749772
0.081432723	0.040554963	0.0009295838	0.00022749485
0.081629656	0.044266667	0.0010154925	0.00022749485
0.08182659	0.044991966	0.0010341407	0.00022749485
0.082023524	0.034060672	0.00077903044	0.00022749485
0.082220457	0.042757884	0.00098163774	0.00022749772
0.082417399	0.033066668	0.00075625692	0.00022749485
0.082614332	0.036721662	0.00084067194	0.00022749485
0.082811266	0.035050452	0.00079974602	0.00022749485
0.0830082	0.028947368	0.00065687543	0.00022749485
0.083205134	0.031183932	0.00071017415	0.00022749163
0.083402075	0.036450081	0.0008308292	0.00022749485
0.083599009	0.038850453	0.00088948692	0.00022749485
0.083795942	0.037775446	0.0008581127	0.00022748877
0.083992876	0.033525407	0.00076054677	0.00022749485
0.08418981	0.029842932	0.00067594874	0.00022749772
0.084386751	0.047095761	0.0010708122	0.00022748877
0.084583685	0.040773652	0.00092539465	0.00022749485
0.084780619	0.04737116	0.0010742181	0.00022749485
0.084977552	0.03862213	0.00087545515	0.00022748877
0.085174486	0.040847983	0.00092243502	0.00022749163
0.085371427	0.041601665	0.00094223389	0.00022748877
0.085568361	0.046320122	0.001043549	0.00022748877
0.085765295	0.038580246	0.000868448	0.00022748877
0.085962228	0.043795619	0.00099273364	0.00022748877
0.086159162	0.045314111	0.0010218763	0.00022748555
0.086356103	0.044342507	0.00099423679	0.00022748877
0.086553037	0.047741272	0.0010746164	0.00022748877
0.086749971	0.039614018	0.00088633952	0.00022748877
0.086946905	0.03292181	0.00074046443	0.00022748268
0.087143838	0.043588445	0.0009735669	0.00022749163
0.08734078	0.032126468	0.0007189585	0.00022748877
0.087537713	0.04255319	0.00095146743	0.00022748268
0.087734647	0.032372281	0.00072217855	0.00022748877
0.087931581	0.044715445	0.0010018204	0.00022748877
0.088128515	0.042189855	0.00093944033	0.00022748555
0.088325456	0.049345419	0.0011010813	0.00022748268
0.08852239	0.055696204	0.0012465151	0.00022748268
0.088719323	0.042935595	0.00095281884	0.00022748268
0.088916257	0.046593186	0.00103693	0.00022748268
0.089113191	0.048951048	0.0010877911	0.00022748555
0.089310132	0.05044955	0.001120762	0.00022748268
0.089507066	0.045816734	0.0010167672	0.00022748268
0.089703999	0.039186507	0.00086644077	0.00022748268
0.089900933	0.046999998	0.0010450101	0.00022748268
0.090097867	0.051647812	0.0011392368	0.00022747947
0.090294808	0.038883351	0.00086221413	0.00022748268
0.090491742	0.045387272	0.0010021429	0.00022748268
0.090688676	0.038556598	0.00085051486	0.00022748268
0.090885609	0.055281341	0.0012220921	0.0002274766
0.091082543	0.038897093	0.00085699762	0.00022748268
0.091279477	0.047220856	0.0010413872	0.00022748555
0.091476418	0.04771274	0.0010520802	0.0002274766
0.091673352	0.043457031	0.00095448701	0.00022748268
0.091870286	0.035346098	0.00077758078	0.0002274766
0.092067219	0.049461313	0.001088311	0.0002274766
0.092264153	0.042843234	0.00093918631	0.00022747947
0.092461094	0.043902438	0.00096363277	0.0002274766
0.092658028	0.040586796	0.00089151575	0.0002274766
0.092854962	0.045476537	0.0009942645	0.0002274766
0.093051895	0.040115997	0.00087630405	0.0002274766
0.093248829	0.039339487	0.00086113875	0.00022747337
0.09344577	0.048332527	0.0010565417	0.0002274766
0.093642704	0.045675412	0.0010006801	0.00022747052
0.093839638	0.045805208	0.00099983404	0.0002274766
0.094036572	0.053872053	0.0011753674	0.0002274766
0.094233505	0.0433526	0.00094522891	0.00022747947
0.094430447	0.034482758	0.00074852828	0.00022747052
0.09462738	0.046859905	0.0010242144	0.00022747052
0.094824314	0.048780486	0.0010601274	0.00022747052
0.095021248	0.045476306	0.00098863873	0.00022747052
0.095218182	0.041408852	0.00089732569	0.00022747337
0.095415123	0.048733875	0.0010592262	0.00022747052
0.095612057	0.047641736	0.0010336544	0.00022747052
0.09580899	0.052306227	0.0011344427	0.00022747052
0.096005924	0.041148324	0.00089406146	0.00022747052
0.096202858	0.053579897	0.0011601597	0.00022747337
0.096399799	0.043971632	0.00095020037	0.00022747052
0.096596733	0.039981186	0.0008617136	0.00022746444
0.096793666	0.039697543	0.0008571787	0.00022747052
0.0969906	0.038279772	0.00082593411	0.00022746444
0.097187534	0.039114043	0.00084367435	0.00022747337
0.097384475	0.046291921	0.0010001448	0.00022746444
0.097581409	0.047462407	0.0010233028	0.00022747052
0.097778343	0.038157284	0.00081740576	0.00022746444
0.097975276	0.041411765	0.00089262147	0.00022746444
0.09817221	0.041511193	0.00089086517	0.00022746729
0.098369151	0.040546913	0.00087500858	0.00022746444
0.098566085	0.042149141	0.00090199569	0.00022746444
0.098763019	0.043559719	0.00093731668	0.00022746444
0.098959953	0.044865865	0.000959736	0.00022746444
0.099156886	0.030023094	0.00063964282	0.00022746121
0.099353828	0.046218488	0.00099216844	0.00022746444
0.099550761	0.04042751	0.00086572813	0.00022745834
0.099747695	0.051175658	0.0010928741	0.00022745834
0.099944629	0.049028676	0.001048566	0.00022745834
0.10014156	0.055632185	0.001186903	0.00022746121
0.1003385	0.041070603	0.00087660539	0.00022745834
0.10053544	0.04357798	0.00092820945	0.00022746444
0.10073237	0.049721189	0.0010663853	0.00022745834
0.1009293	0.043996334	0.0009363399	0.00022746444
0.10112624	0.046363637	0.00098317349	0.00022746121
0.10132318	0.041360293	0.00088136637	0.00022746444
0.10152011	0.03407542	0.00072085037	0.00022745834
0.10171705	0.036579791	0.0007768565	0.00022745834
0.10191398	0.041932542	0.00088991231	0.00022745834
0.10211091	0.049794428	0.0010587331	0.00022746121
0.10230786	0.041837201	0.00088666618	0.00022745834
0.10250479	0.045660038	0.00096575305	0.00022745226
0.10270172	0.039639641	0.00083593384	0.00022745226
0.10289866	0.045102507	0.00095684145	0.00022745226
0.10309559	0.043772563	0.00092446705	0.00022745512
0.10329253	0.042611063	0.00090198085	0.00022745226
0.10348947	0.041255604	0.00086803123	0.00022745834
0.1036864	0.037837837	0.0007976467	0.00022745226
0.10388333	0.029161058	0.00061243639	0.00022745226
0.10408027	0.040035989	0.00084346998	0.00022746121
0.10427721	0.035874441	0.00075365481	0.00022745226
0.10447414	0.036339164	0.00076439412	0.00022745226
0.10467108	0.038770054	0.00081324764	0.00022745226
0.10486801	0.041573536	0.00087373127	0.00022745226
0.10506494	0.051441241	0.0010781863	0.00022745512
0.10526188	0.04454343	0.00093465362	0.00022745226
0.10545882	0.046105642	0.00097001262	0.00022744617
0.10565575	0.051838726	0.0010860872	0.00022745226
0.10585269	0.048401423	0.0010147841	0.00022745226
0.10604962	0.060512368	0.0012665077	0.00022745512
0.10624656	0.043362834	0.00090681936	0.00022744617
0.10644349	0.044571932	0.00093115598	0.00022744617
0.10664043	0.044914134	0.00093760487	0.00022745226
0.10683736	0.037151702	0.00077626895	0.00022744617
0.1070343	0.044454224	0.00092765322	0.00022744904
0.10723124	0.041976389	0.00087259326	0.00022744617
0.10742817	0.044493392	0.00092878751	0.00022744617
0.1076251	0.040347073	0.00083534839	0.00022744617
0.10782204	0.043516483	0.00090746547	0.00022744617
0.10801897	0.053782247	0.0011195373	0.00022744904
0.10821591	0.04726477	0.00098371354	0.00022744617
0.10841285	0.040976461	0.000850768	0.00022744617
0.10860978	0.045867588	0.00094879605	0.00022744009
0.10880671	0.053994734	0.0011261796	0.00022744009
0.10900365	0.052654296	0.0010888872	0.00022744904
0.10920059	0.051448334	0.0010645682	0.00022744009
0.10939752	0.059002168	0.0012242841	0.00022744009
0.10959446	0.060475163	0.0012520965	0.00022744009
0.10979139	0.0625543	0.0012988335	0.00022744009
0.10998832	0.066866696	0.0013794233	0.00022744296
0.11018527	0.06123329	0.001266336	0.00022744009
0.1103822	0.073675141	0.0015243831	0.00022744009
0.11057913	0.0583691	0.0012042361	0.00022743401
0.11077607	0.059380379	0.0012272251	0.00022744009
0.110973	0.063458264	0.0013051222	0.00022743687
0.11116994	0.071398035	0.0014716451	0.00022743401
0.11136688	0.057387579	0.0011830934	0.00022743401
0.11156381	0.06125053	0.0012585567	0.00022743401
0.11176074	0.065384619	0.0013468866	0.00022743401
0.11195768	0.066157758	0.001357822	0.00022744296
0.11215462	0.067550234	0.0013917561	0.00022743401
0.11235155	0.057724956	0.0011845478	0.00022743401
0.11254849	0.062051497	0.0012700359	0.00022743401
0.11274542	0.044877224	0.00091905525	0.00022743401
0.11294235	0.055579126	0.0011402013	0.00022743687
0.11313929	0.059246719	0.0012140096	0.00022743401
0.11333623	0.061686948	0.0012590935	0.00022743401
0.11353316	0.057082452	0.0011692201	0.00022742792
0.1137301	0.06092437	0.0012442985	0.00022743401
0.11392703	0.069037654	0.0014076066	0.00022743079
0.11412397	0.064678706	0.00132108	0.00022742792
0.1143209	0.066414461	0.0013570719	0.00022742792
0.11451784	0.060694851	0.001237095	0.00022742792
0.11471477	0.066302978	0.0013535467	0.00022742792
0.11491171	0.060480531	0.001226826	0.00022743079
0.11510865	0.074290484	0.0015131354	0.00022742792
0.11530558	0.064113237	0.001303957	0.00022742792
0.11550251	0.057298202	0.0011674402	0.00022742792
0.11569945	0.067550763	0.0013705391	0.00022742792
0.11589638	0.063301615	0.001282975	0.00022743079
0.11609332	0.071103759	0.0014413854	0.00022742792
0.11629026	0.073261589	0.0014860044	0.00022742792
0.11648719	0.06779661	0.001373802	0.00022742184
0.11668412	0.070189923	0.0014218215	0.00022742184
0.11688106	0.072079539	0.0014623968	0.00022742471
0.117078	0.078536183	0.0015881145	0.00022742184
0.11727493	0.077773228	0.001568894	0.00022742184
0.11747187	0.088825218	0.0017925656	0.00022742184
0.1176688	0.083230831	0.0016807137	0.00022742184
0.11786573	0.091171615	0.0018473755	0.00022742471
0.11806267	0.096774191	0.0019511036	0.00022742184
0.11825961	0.092994675	0.001877885	0.00022742184
0.11845654	0.10665045	0.0021431705	0.00022742184
0.11865348	0.12291412	0.0024750058	0.00022742184
0.11885041	0.1106104	0.0022340142	0.00022741863
0.11904735	0.12105263	0.0024313626	0.00022741576
0.11924428	0.13181448	0.002654162	0.00022741576
0.11944122	0.16140777	0.0032418075	0.00022741576
0.11963815	0.21324126	0.004292625	0.00022741576
0.11983509	0.30735236	0.0061556748	0.00022741863
0.12003203	0.47697899	0.0095805256	0.00022741576
0.12022896	0.84802926	0.017087992	0.00022741576
0.12042589	1.3433199	0.027021484	0.00022741576
0.12062283	2.0781562	0.04159556	0.00022741576
0.12081976	3.2137985	0.064354047	0.00022741863
0.1210167	4.5971999	0.09192913	0.00022741576
0.12121364	6.1260095	0.12309446	0.00022740968
0.12141057	7.631537	0.15245824	0.00022740968
0.1216075	9.1139193	0.1825127	0.00022741576
0.12180444	10.058519	0.20066985	0.00022741254
0.12200138	10.469909	0.20900606	0.00022740968
0.12219831	10.459664	0.20901251	0.00022741576
0.12239525	9.8966341	0.19693993	0.00022741576
0.12259218	9.3559732	0.18699901	0.00022740968
0.12278911	8.467967	0.16891299	0.00022741254
0.12298606	7.8208895	0.15584844	0.00022740968
0.12318299	6.8942995	0.13716286	0.00022740968
0.12337992	6.1224008	0.12125108	0.00022740968
0.12357686	5.3875446	0.10728329	0.00022740968
0.12377379	4.5183721	0.089792743	0.00022740646
0.12397073	3.8839321	0.077151179	0.00022740968
0.12416767	3.1146898	0.061710767	0.00022740359
0.1243646	2.4651253	0.048782948	0.00022740359
0.12456153	1.897082	0.037659451	0.00022740359
0.12475847	1.372257	0.027155431	0.00022740646
0.12495541	0.98976779	0.019628208	0.00022739463
0.12515233	0.71188426	0.014069919	0.00022740323
0.12534928	0.52744257	0.010401374	0.00022739751
0.12554622	0.43957764	0.0086883837	0.00022739751
0.12574315	0.39176059	0.0077189235	0.00022739751
0.12594008	0.33724111	0.0066622705	0.00022739751
0.12613702	0.32296929	0.0063630603	0.00022740968
0.12633395	0.30838206	0.0060845264	0.00022740968
0.12653089	0.30480248	0.0059942082	0.00022739751
0.12672782	0.26700154	0.0052444502	0.00022739751
0.12692475	0.25272587	0.0049828631	0.00022739751
0.12712169	0.24655436	0.0048199063	0.00022740323
0.12731864	0.22433904	0.0044189491	0.00022739751
0.12751557	0.20623317	0.0040412173	0.00022739751
0.1277125	0.20884615	0.0040917806	0.00022739751
0.12790944	0.21900348	0.0043000202	0.00022739751
0.12810637	0.19184929	0.0037576584	0.00022739751
0.1283033	0.17133	0.0033502714	0.00022739751
0.12850024	0.18321195	0.003582712	0.00022739751
0.12869717	0.17705545	0.003458255	0.00022738535
0.12889411	0.1529005	0.0029927574	0.00022739751
0.12909104	0.16888551	0.0032897766	0.00022740323
0.12928799	0.14493865	0.0028341885	0.00022739751
0.12948492	0.15195149	0.0029537685	0.00022739751
0.12968186	0.1467329	0.0028643184	0.00022738535
0.12987879	0.14927647	0.0029091572	0.00022738535
0.13007572	0.16231555	0.0031532042	0.00022738535
0.13027266	0.15829529	0.0030834838	0.00022738535
0.13046959	0.13756613	0.00267036	0.00022738535
0.13066652	0.14031096	0.0027280943	0.00022738535
0.13086346	0.14517958	0.0028190082	0.00022739751
0.13106039	0.12828207	0.0024803977	0.00022740323
0.13125734	0.12623574	0.0024574334	0.00022738535
0.13145427	0.13072878	0.0025294703	0.00022738535
0.13165121	0.12881356	0.0024955519	0.00022738535
0.13184814	0.12476583	0.0024104498	0.00022738535
0.13204508	0.1331583	0.0025748063	0.00022738535
0.13224201	0.11706948	0.0022710625	0.00022738535
0.13243894	0.117713	0.0022717363	0.00022738535
0.13263588	0.097615503	0.0018803757	0.00022738535
0.13283281	0.11593119	0.002238156	0.00022738535
0.13302974	0.11414671	0.0022040012	0.00022739106
0.13322669	0.11044776	0.00212947	0.00022738535
0.13342363	0.12120089	0.0023293416	0.00022738535
0.13362056	0.11437059	0.002200098	0.00022738535
0.13381749	0.099888183	0.0019245144	0.00022737318
0.13401443	0.10342262	0.0019907588	0.00022737318
0.13421136	0.1038961	0.0019974897	0.00022738535
0.1344083	0.10685335	0.002047139	0.00022737318
0.13460523	0.095713228	0.0018360828	0.00022737318
0.13480216	0.092936806	0.0017880326	0.00022737318
0.1349991	0.095555559	0.0018351033	0.0002273789
0.13519605	0.093031742	0.0017731071	0.00022737318
0.13539298	0.088485748	0.001698775	0.00022737318
0.13558991	0.0989011	0.0018891048	0.00022737318
0.13578685	0.085997798	0.0016446204	0.00022737318
0.13598378	0.086415231	0.0016497066	0.00022737318
0.13618071	0.092415318	0.0017690896	0.00022737318
0.13637765	0.093738556	0.001789702	0.00022737318
0.13657458	0.0931677	0.0017770233	0.00022737318
0.13677152	0.084183671	0.00160328	0.00022737318
0.13696845	0.079578489	0.0015132193	0.00022737318
0.13716538	0.08360716	0.0015937125	0.0002273789
0.13736233	0.08964508	0.0017108099	0.00022737318
0.13755926	0.081286125	0.0015412468	0.00022737318
0.1377562	0.091769844	0.0017473225	0.00022737318
0.13795313	0.089622639	0.0017036606	0.00022736102
0.13815007	0.088840738	0.0016844742	0.00022736102
0.138347	0.080493107	0.0015289134	0.00022737318
0.13854393	0.091366909	0.0017287995	0.00022737318
0.13874087	0.073454544	0.0013970584	0.00022736102
0.1389378	0.079422385	0.0015053548	0.00022736102
0.13913473	0.073092081	0.0013798879	0.00022736673
0.13933168	0.077282533	0.0014615626	0.00022737318
0.13952862	0.076122083	0.0014387463	0.00022737318
0.13972555	0.068313956	0.0012983254	0.00022736102
0.13992248	0.080541693	0.0015166234	0.00022736102
0.14011942	0.076730013	0.0014493336	0.00022736102
0.14031635	0.068311878	0.0012881008	0.00022737318
0.14051329	0.07634677	0.0014384559	0.00022736102
0.14071022	0.072479367	0.0013692254	0.00022736102
0.14090715	0.059177887	0.0011104048	0.00022736102
0.14110409	0.067832917	0.0012780807	0.00022736673
0.14130104	0.068620443	0.0012936223	0.00022736102
0.14149797	0.067328133	0.0012636984	0.00022736102
0.1416949	0.072720826	0.0013660627	0.00022734885
0.14189184	0.059717316	0.0011188731	0.00022736102
0.14208877	0.067857146	0.0012788369	0.00022736102
0.1422857	0.070187874	0.0013177637	0.00022736102
0.14248264	0.060723059	0.0011341337	0.00022736102
0.14267957	0.062765956	0.0011785519	0.00022736102
0.14287651	0.063268892	0.0011825335	0.00022736102
0.14307344	0.05484784	0.0010280357	0.00022735457
0.14327039	0.072382294	0.0013531926	0.00022736102
0.14346732	0.066150598	0.0012373124	0.00022734885
0.14366426	0.07195507	0.0013444113	0.00022734885
0.14386119	0.065286063	0.0012197017	0.00022736102
0.14405812	0.069001749	0.0012877653	0.00022734885
0.14425506	0.068712942	0.0012795553	0.00022734885
0.14445199	0.058575939	0.0010936221	0.00022734885
0.14464892	0.058266059	0.0010879564	0.00022734885
0.14484586	0.057351407	0.0010656654	0.00022734885
0.14504279	0.06171548	0.0011489011	0.00022735457
0.14523974	0.064616449	0.0011977871	0.00022734885
0.14543667	0.069449313	0.0012927495	0.00022733668
0.14563361	0.068726137	0.0012724104	0.00022734885
0.14583054	0.063955508	0.0011858928	0.00022734885
0.14602748	0.06779661	0.0012541488	0.00022734885
0.14622441	0.063689858	0.0011814291	0.00022733668
0.14642134	0.067380786	0.0012489316	0.00022734885
0.14661828	0.058195591	0.0010765268	0.00022733668
0.14681521	0.076256499	0.0014161217	0.00022733668
0.14701214	0.074163504	0.0013736126	0.0002273424
0.14720909	0.062693767	0.0011599568	0.00022733668
0.14740603	0.069975868	0.0012956141	0.00022733668
0.14760296	0.054836512	0.0010087369	0.00022733668
0.14779989	0.065105066	0.0012047758	0.00022733668
0.14799683	0.058560111	0.0010835177	0.00022733668
0.14819376	0.0573489	0.00105955	0.00022733668
0.1483907	0.056145154	0.0010354914	0.00022733668
0.14858763	0.055479918	0.0010200785	0.00022733668
0.14878456	0.059086226	0.0010917196	0.00022733668
0.1489815	0.056610171	0.0010388786	0.0002273424
0.14917845	0.053492334	0.0009840033	0.00022733668
0.14937538	0.055934515	0.0010294376	0.00022733668
0.14957231	0.057229936	0.0010498775	0.00022733668
0.14976925	0.055821918	0.0010294484	0.00022733668
0.14996618	0.055948772	0.0010237703	0.00022733668
0.15016311	0.050508473	0.0009262528	0.00022732452
0.15036005	0.051003061	0.00093728764	0.00022732452
0.15055698	0.065700807	0.0012027329	0.00022733668
0.15075392	0.062542491	0.0011497814	0.00022733668
0.15095085	0.061724253	0.0011202998	0.00022733024
0.1511478	0.053216573	0.00096801628	0.00022732452
0.15134473	0.047345281	0.00086125184	0.00022733668
0.15154167	0.055686012	0.0010165659	0.00022732452
0.1517386	0.057809331	0.0010595449	0.00022732452
0.15193553	0.052913595	0.00096495316	0.00022732452
0.15213247	0.050756302	0.00092722435	0.00022733668
0.1523294	0.053637277	0.00097853912	0.00022732452
0.15252633	0.053982005	0.00098211109	0.00022732452
0.15272327	0.058882568	0.0010737869	0.00022732452
0.1529202	0.046046045	0.0008377459	0.00022733024
0.15311715	0.04292421	0.00078266812	0.00022732452
0.15331408	0.05250914	0.00095417863	0.00022732452
0.15351102	0.046210106	0.00083904492	0.00022732452
0.15370795	0.048585691	0.00088316709	0.00022731235
0.15390489	0.049251247	0.0008953138	0.00022732452
0.15410182	0.044326827	0.00080292206	0.00022732452
0.15429875	0.045514949	0.00082653051	0.00022732452
0.15449569	0.048472777	0.00087967369	0.00022731235
0.15469262	0.051952351	0.00094192894	0.00022731235
0.15488955	0.04677207	0.0008455395	0.00022731809
0.1550865	0.048748352	0.00088143186	0.00022732452
0.15528344	0.043074884	0.00078091578	0.00022731235
0.15548037	0.045048028	0.00081676157	0.00022731235
0.1556773	0.048196722	0.00086942845	0.00022731235
0.15587424	0.058319606	0.0010555502	0.00022731235
0.15607117	0.057114884	0.0010286324	0.00022731235
0.1562681	0.060336299	0.0010923648	0.00022731235
0.15646504	0.057161629	0.0010328643	0.00022732452
0.15666197	0.057226945	0.0010317633	0.00022731235
0.15685891	0.059496567	0.0010722916	0.00022731809
0.15705585	0.054159869	0.00097477372	0.00022731235
0.15725279	0.054682385	0.00098604709	0.00022731235
0.15744972	0.051690508	0.00092866429	0.00022731235
0.15764666	0.055989582	0.0010066787	0.00022731235
0.15784359	0.050491802	0.00091062614	0.00022731235
0.15804052	0.047665369	0.00085504894	0.00022731235
0.15823746	0.055718474	0.0010024064	0.00022731235
0.15843439	0.041854475	0.00074760366	0.00022731235
0.15863132	0.044747081	0.00080233155	0.00022730019
0.15882826	0.048208468	0.00086654897	0.00022731809
0.15902521	0.046218488	0.00082736125	0.00022730019
0.15922214	0.047619049	0.00085328479	0.00022730019
0.15941907	0.035599742	0.00063419336	0.00022731235
0.15961601	0.038200065	0.00068396062	0.00022730019
0.15981294	0.034449454	0.00061495649	0.00022730019
0.16000988	0.046683837	0.00083429716	0.00022730019
0.16020681	0.034138486	0.0006091402	0.00022730019
0.16040374	0.040076949	0.00071456912	0.00022730019
0.16060068	0.042875566	0.0007661694	0.00022730019
0.16079761	0.040829346	0.00072575815	0.00022730592
0.16099456	0.049760766	0.00088520854	0.00022730019
0.16119149	0.044737689	0.00079921767	0.00022730019
0.16138843	0.049248479	0.00087715796	0.00022730019
0.16158536	0.047420699	0.00084508193	0.00022730019
0.16178229	0.042262472	0.00074983574	0.00022728802
0.16197923	0.041480538	0.00073769415	0.00022728802
0.16217616	0.039415129	0.00069935125	0.00022728802
0.1623731	0.046163641	0.00082007499	0.00022728802
0.16257003	0.049825452	0.00088438689	0.00022728802
0.16276696	0.048602287	0.00086283812	0.00022730592
0.16296391	0.038754765	0.0006875355	0.00022728802
0.16316085	0.05156596	0.00091366749	0.00022730019
0.16335778	0.047136981	0.00083487656	0.00022728802
0.16355471	0.048219349	0.00085221889	0.00022728802
0.16375165	0.051646225	0.00092430128	0.00022728802
0.16394858	0.045127533	0.00081262994	0.00022728802
0.16414551	0.046359777	0.00083425775	0.00022728802
0.16434245	0.046265699	0.00083740917	0.00022728802
0.16453938	0.046542551	0.00084498135	0.00022728802
0.16473632	0.047778148	0.00086968264	0.00022729376
0.16493326	0.040431269	0.00073864724	0.00022728802
0.1651302	0.038577657	0.00070291065	0.00022727586
0.16532713	0.046511628	0.00085642521	0.00022728802
0.16552407	0.039945837	0.00073117169	0.00022727586
0.165721	0.039661016	0.00072646391	0.00022728802
0.16591793	0.035702024	0.00065767608	0.00022727586
0.16611487	0.038395613	0.00070733589	0.00022727586
0.1663118	0.039583333	0.00073356437	0.00022728802
0.16650873	0.040563766	0.0007484766	0.00022728802
0.16670567	0.03582501	0.00066120137	0.00022728159
0.16690262	0.04307051	0.00079887226	0.00022727586
0.16709955	0.032392893	0.00060083444	0.00022727586
0.16729648	0.037570223	0.00069996185	0.00022727586
0.16749342	0.035863511	0.00066543231	0.00022727586
0.16769035	0.043371808	0.00080737664	0.00022727586
0.16788729	0.044491526	0.00083223497	0.00022727586
0.16808422	0.050764952	0.00094267604	0.00022727586
0.16828115	0.043570671	0.00081587106	0.00022727586
0.16847809	0.050579559	0.00094393751	0.00022726369
0.16867502	0.048710603	0.00091833057	0.00022728159
0.16887197	0.045406174	0.00085126917	0.00022727586
0.1690689	0.046963278	0.00087852363	0.00022726369
0.16926584	0.046197582	0.00086674414	0.00022727586
0.16946277	0.051994301	0.00097712921	0.00022727586
0.1696597	0.047824524	0.00090264896	0.00022726369
0.16985664	0.044531528	0.00083610788	0.00022726369
0.17005357	0.042872455	0.00080649665	0.00022727586
0.17025051	0.04168164	0.00078660354	0.00022726369
0.17044744	0.033345286	0.00062752934	0.00022726369
0.17064437	0.037837837	0.00071419589	0.00022726943
0.17084132	0.042116631	0.00079468114	0.00022727586
0.17103826	0.038251366	0.00072593737	0.00022726369
0.17123519	0.035830621	0.00067769561	0.00022726369
0.17143212	0.046453007	0.00087771006	0.00022726369
0.17162906	0.041259501	0.00078077597	0.00022726369
0.17182599	0.045110069	0.00085311796	0.00022726369
0.17202292	0.04197349	0.00080144434	0.00022726369
0.17221986	0.039927404	0.00075686089	0.00022726369
0.17241679	0.038643822	0.00073403155	0.00022726369
0.17261373	0.035727307	0.00067822466	0.00022725726
0.17281067	0.041135784	0.0007810244	0.00022726369
0.17300761	0.05172414	0.00098663429	0.00022726369
0.17320454	0.027332362	0.00051772723	0.00022725153
0.17340147	0.04209749	0.00080487365	0.00022725153
0.17359841	0.040914118	0.00078133255	0.00022725153
0.17379534	0.035989717	0.00068563921	0.00022726369
0.17399228	0.033736706	0.00064194703	0.00022726369
0.17418921	0.037756599	0.00071888498	0.00022725153
0.17438614	0.043170821	0.00082845392	0.00022725153
0.17458308	0.044247787	0.00084520399	0.00022725726
0.17478003	0.037023325	0.00070829788	0.00022725153
0.17497696	0.04029575	0.00077037187	0.00022725153
0.17517389	0.0429831	0.00081975712	0.00022725153
0.17537083	0.0430873	0.00082990486	0.00022723936
0.17556776	0.039143279	0.00074770371	0.00022723936
0.17576469	0.032041728	0.00061448186	0.00022723936
0.17596163	0.041106127	0.00079056091	0.00022725153
0.17615856	0.040816326	0.00078188756	0.00022725153
0.1763555	0.040565688	0.00077839184	0.00022725153
0.17655243	0.046770602	0.00089671672	0.00022724509
0.17674938	0.04470323	0.00086171675	0.00022723936
0.17694631	0.036745407	0.00070779701	0.00022723936
0.17714325	0.046389826	0.00089304993	0.00022725153
0.17734018	0.044310927	0.00085468666	0.00022723936
0.17753711	0.043882485	0.00084213592	0.00022723936
0.17773405	0.046957176	0.00090617297	0.00022723936
0.17793098	0.043396227	0.00083897554	0.00022723936
0.17812791	0.039774857	0.00076615124	0.00022723936
0.17832485	0.046257991	0.00089269294	0.00022723936
0.17852178	0.030485511	0.00058714463	0.00022724509
0.17871873	0.032087579	0.0006192727	0.00022723936
0.17891566	0.032355156	0.00062360655	0.00022723936
0.1791126	0.032111824	0.00061980082	0.00022722721
0.17930953	0.034730088	0.00067091273	0.00022723936
0.17950647	0.037907507	0.00073389936	0.00022723936
0.1797034	0.040075615	0.00077485858	0.00022723936
0.17990033	0.034326669	0.00066274125	0.00022723936
0.18009727	0.033840302	0.00065560348	0.00022722721
0.1802942	0.036728512	0.00071044586	0.00022722721
0.18049113	0.039800994	0.00077457936	0.00022723294
0.18068808	0.040924594	0.00079261762	0.00022722721
0.18088502	0.037893143	0.00073348219	0.00022722721
0.18108195	0.038109757	0.00073963165	0.00022722721
0.18127888	0.03876853	0.00075137301	0.00022722721
0.18147582	0.04351145	0.00084570266	0.00022722721
0.18167275	0.035280727	0.00068303675	0.00022722721
0.18186969	0.033333335	0.00064804964	0.00022722721
0.18206662	0.028757669	0.00055865216	0.00022722721
0.18226355	0.036336109	0.00070282433	0.00022721505
0.18246049	0.034906022	0.00067884411	0.00022723294
0.18265744	0.037037037	0.0007195723	0.00022721505
0.18285437	0.034588777	0.0006739276	0.00022722721
0.1830513	0.035782993	0.00069767627	0.00022722721
0.18324824	0.034285713	0.00066508859	0.00022721505
0.18344517	0.047655649	0.00093003863	0.00022721505
0.1836421	0.03911043	0.00076155789	0.00022721505
0.18383904	0.032692309	0.00063704228	0.00022721505
0.18403597	0.034588777	0.0006739276	0.00022721505
0.18423291	0.041169681	0.00080300937	0.00022721505
0.18442984	0.036032546	0.00070515339	0.00022722078
0.18462679	0.032208588	0.00062605762	0.00022721505
0.18482372	0.039336674	0.00076802709	0.00022721505
0.18502066	0.043812454	0.00085469376	0.00022721505
0.18521759	0.045243621	0.00088521087	0.00022721505
0.18541452	0.043764524	0.00085688033	0.00022721505
0.18561146	0.038951021	0.00075983995	0.00022721505
0.18580839	0.038164996	0.00074399903	0.00022721505
0.18600532	0.040650405	0.00079559197	0.00022720288
0.18620226	0.033760186	0.00066053902	0.00022721505
0.18639919	0.03950426	0.0007724897	0.00022722078
0.18659614	0.040697675	0.00079668779	0.00022720288
0.18679307	0.045631826	0.00089643127	0.00022720288
0.18699001	0.040974103	0.00080128206	0.00022720288
0.18718694	0.038506418	0.00075517641	0.00022720288
0.18738388	0.056451611	0.0011015168	0.00022720288
0.18758081	0.04354649	0.00085837051	0.00022721505
0.18777774	0.045860864	0.00089979562	0.00022720288
0.18797468	0.04127726	0.0008101195	0.00022720288
0.18817161	0.035463758	0.00069560681	0.00022719071
0.18836854	0.032894738	0.00064278865	0.00022720861
0.18856549	0.033438239	0.00065915671	0.00022719071
0.18876243	0.04359673	0.00085577439	0.00022720288
0.18895936	0.038986355	0.00076491327	0.00022720288
0.18915629	0.037123878	0.00073005661	0.00022719071
0.18935323	0.032409213	0.00063601782	0.00022719071
0.18955016	0.036092587	0.00071052869	0.00022720288
0.1897471	0.036921881	0.00072361866	0.00022719071
0.18994403	0.026212832	0.00051446585	0.00022720288
0.19014096	0.036234736	0.00071481662	0.00022719071
0.1903379	0.034643829	0.00067918212	0.00022719646
0.19053484	0.027569909	0.00054243102	0.00022719071
0.19073178	0.031542055	0.00061783928	0.00022719071
0.19092871	0.043273013	0.0008529693	0.00022719071
0.19112565	0.034782607	0.00068699213	0.00022719071
0.19132258	0.03858145	0.00075691583	0.00022719071
0.19151951	0.039385583	0.00077693025	0.00022719071
0.19171645	0.035349566	0.00069620012	0.00022719071
0.19191338	0.03977944	0.00078475766	0.00022717856
0.19211031	0.035686273	0.00070207892	0.00022719071
0.19230725	0.034550451	0.00068039168	0.00022719646
0.1925042	0.031361651	0.00062041392	0.00022719071
0.19270113	0.036978755	0.00072908727	0.00022719071
0.19289806	0.039385583	0.00077669421	0.00022719071
0.193095	0.032119077	0.0006310576	0.00022717856
0.19329193	0.031361651	0.00062051479	0.00022719071
0.19348887	0.036392406	0.00071931566	0.00022717856
0.1936858	0.03971687	0.00078313967	0.00022717856
0.19388273	0.037095502	0.00073220726	0.00022717856
0.19407967	0.028085442	0.0005540814	0.00022717856
0.1942766	0.031885214	0.00063209364	0.0002271843
0.19447355	0.035602503	0.00070003595	0.00022717856
0.19467048	0.028141102	0.00055628968	0.00022717856
0.19486742	0.027294304	0.00053889817	0.0002271664
0.19506435	0.033373062	0.00066088891	0.0002271664
0.19526128	0.029517351	0.00058509997	0.0002271664
0.19545822	0.035252646	0.0006935118	0.0002271664
0.19565515	0.025230275	0.00050060073	0.0002271664
0.19585209	0.030952381	0.00061192585	0.0002271664
0.19604902	0.034441806	0.00068064674	0.0002271664
0.19624595	0.031474102	0.00062365283	0.00022717213
0.1964429	0.035460994	0.00069966982	0.00022717856
0.19663984	0.040064104	0.0007973382	0.0002271664
0.19683677	0.030422758	0.00060017745	0.0002271664
0.1970337	0.02715655	0.0005384445	0.0002271664
0.19723064	0.032578465	0.00064523017	0.0002271664
0.19742757	0.032962669	0.00065161241	0.0002271664
0.1976245	0.028101165	0.00055841875	0.00022715423
0.19782144	0.035629455	0.00070413348	0.0002271664
0.19801837	0.031948883	0.0006338876	0.0002271664
0.19821531	0.037096132	0.00073600467	0.00022715998
0.19841225	0.03941083	0.00078169897	0.0002271664
0.19860919	0.031625301	0.00062825484	0.00022715423
0.19880612	0.041220769	0.00081624568	0.00022715423
0.19900306	0.039404906	0.00078519556	0.00022715423
0.19919999	0.044674911	0.00088779157	0.00022715423
0.19939692	0.045019921	0.0008942305	0.00022715423
0.19959386	0.045161292	0.00090218568	0.0002271664
0.19979079	0.0441879	0.00087683188	0.00022715423
0.19998772	0.040881764	0.00081372517	0.00022715423
0.20018466	0.038676236	0.00076721323	0.00022715998
0.20038161	0.040209088	0.00080158969	0.00022715423
0.20057854	0.038815524	0.00077202666	0.00022715423
0.20077547	0.033559728	0.00066634652	0.00022715423
0.20097241	0.031413611	0.00062607392	0.00022715423
0.20116934	0.03115016	0.0006178011	0.00022715423
0.20136628	0.037826963	0.00075414637	0.00022714208
0.20156321	0.033626903	0.00066815631	0.00022715423
0.20176014	0.039097138	0.00077985699	0.00022714208
0.20195708	0.050040033	0.0009962935	0.00022715423
0.20215401	0.040513437	0.00080642046	0.00022715998
0.20235096	0.037051953	0.00073896116	0.00022714208
0.20254789	0.032813124	0.00065191998	0.00022714208
0.20274483	0.031237323	0.00062433886	0.00022714208
0.20294176	0.041216485	0.00081994332	0.00022714208
0.20313869	0.035165723	0.00070240954	0.00022714208
0.20333563	0.045656566	0.00091290713	0.00022714208
0.20353256	0.042214256	0.00083778845	0.00022712992
0.2037295	0.04224208	0.00084621832	0.00022712992
0.20392643	0.034841809	0.0006925402	0.00022714208
0.20412336	0.032467533	0.00064949068	0.00022714782
0.20432031	0.04030633	0.00080441823	0.00022714208
0.20451725	0.036086608	0.00071800011	0.00022714208
0.20471418	0.036149472	0.00072403497	0.00022712992
0.20491111	0.034786087	0.00069097173	0.00022714208
0.20510805	0.034132466	0.00068298826	0.00022712992
0.20530498	0.034733441	0.00069305219	0.00022712992
0.20550191	0.032918505	0.00065526104	0.00022712992
0.20569885	0.039999999	0.00080356013	0.00022712992
0.20589578	0.028869286	0.00057382946	0.00022712992
0.20609272	0.02484725	0.00049704476	0.00022713565
0.20628966	0.031842001	0.00063503359	0.00022712992
0.2064866	0.027991887	0.00055897562	0.00022711777
0.20668353	0.035365853	0.00070869958	0.00022712992
0.20688047	0.02739726	0.00054526044	0.00022712992
0.2070774	0.026337115	0.00052539946	0.00022711777
0.20727433	0.031816352	0.00063395721	0.00022711777
0.20747127	0.039918534	0.00080102182	0.00022711777
0.2076682	0.03168156	0.00063389092	0.00022712992
0.20786513	0.031123687	0.0006211474	0.00022712992
0.20806207	0.029315962	0.00058720034	0.0002271235
0.20825902	0.023011709	0.00045809738	0.00022711777
0.20845595	0.037489813	0.00075183046	0.00022711777
0.20865288	0.027878787	0.00055618433	0.00022711777
0.20884982	0.027766434	0.00055680948	0.00022711777
0.20904675	0.03946298	0.00079168129	0.00022711777
0.20924369	0.031237323	0.00062423188	0.0002271056
0.20944062	0.036452007	0.00072838704	0.00022711777
0.20963755	0.038508311	0.00076998188	0.00022711777
0.20983449	0.030838815	0.00062016392	0.00022711777
0.21003142	0.025568182	0.00050977495	0.00022711133
0.21022837	0.025651466	0.00051266339	0.00022711777
0.2104253	0.032192338	0.00064470473	0.00022711777
0.21062224	0.032245062	0.00064272375	0.0002271056
0.21081917	0.029254224	0.00058926846	0.0002271056
0.2110161	0.025101215	0.00050081057	0.0002271056
0.21121304	0.03257329	0.00065266714	0.0002271056
0.21140997	0.031390134	0.00062935735	0.0002271056
0.2116069	0.025326798	0.00050730899	0.0002271056
0.21180384	0.029062629	0.0005834882	0.0002271056
0.21200077	0.028282829	0.00056407723	0.00022711133
0.21219772	0.028395062	0.00057097519	0.00022709343
0.21239465	0.026705012	0.00053696521	0.0002271056
0.21259159	0.028838342	0.00057639711	0.0002271056
0.21278852	0.026122449	0.00052294083	0.0002271056
0.21298546	0.026785715	0.00053524401	0.00022709343
0.21318239	0.026402641	0.00053137814	0.00022709343
0.21337932	0.030032467	0.00060037343	0.00022709343
0.21357626	0.025337148	0.00050788897	0.0002271056
0.21377319	0.035493191	0.00071631151	0.0002271056
0.21397012	0.021978023	0.00043904776	0.00022709918
0.21416707	0.019615857	0.00039177432	0.00022709343
0.21436401	0.033428457	0.00067004259	0.00022709343
0.21456094	0.027526705	0.0005533814	0.00022709343
0.21475787	0.032019705	0.00064385292	0.00022708128
0.21495481	0.032284431	0.0006474735	0.00022709343
0.21515174	0.024580089	0.00049162982	0.00022709343
0.21534868	0.02783463	0.00055873953	0.00022708128
0.21554561	0.024701523	0.00049626362	0.00022709343
0.21574254	0.03267974	0.00065576553	0.00022708128
0.21593948	0.022222223	0.00044591771	0.00022709918
0.21613643	0.022988506	0.00046108803	0.00022708128
0.21633336	0.025010251	0.00050153217	0.00022708128
0.21653029	0.030402629	0.0006113954	0.00022708128
0.21672723	0.026927784	0.00053913065	0.00022709343
0.21692416	0.029278351	0.00058987876	0.00022708128
0.21712109	0.022997947	0.0004616724	0.00022708128
0.21731803	0.030800821	0.00061946566	0.00022708128
0.21751496	0.025113216	0.00050463289	0.00022708128
0.2177119	0.02892057	0.00057898124	0.00022708128
0.21790883	0.026173661	0.00052812806	0.00022708702
0.21810578	0.028594771	0.00057343632	0.00022708128
0.21830271	0.035950415	0.00072595663	0.00022708128
0.21849965	0.029218107	0.0005880589	0.00022706912
0.21869658	0.031096563	0.00062400446	0.00022708128
0.21889351	0.034825869	0.00070431398	0.00022706912
0.21909045	0.037279803	0.00074990757	0.00022706912
0.21928738	0.031366076	0.00063258025	0.00022706912
0.21948431	0.031353135	0.00063218881	0.00022706912
0.21968125	0.032059185	0.00064536725	0.00022706912
0.21987818	0.030540653	0.00061556417	0.00022707487
0.22007513	0.029881293	0.00059983949	0.00022706912
0.22027206	0.026959768	0.00054440601	0.00022706912
0.220469	0.026272578	0.00052719354	0.00022706912
0.22066593	0.027731787	0.00055919762	0.00022705697
0.22086287	0.035405517	0.00071316946	0.00022705697
0.2210598	0.034198601	0.00068931817	0.00022705697
0.22125673	0.025237897	0.00050853554	0.00022705697
0.22145367	0.02892562	0.00058317662	0.00022705697
0.2216506	0.035537191	0.00071754574	0.00022706912
0.22184753	0.037037037	0.00074608834	0.00022707487
0.22204448	0.039004151	0.00078944664	0.00022705697
0.22224142	0.03960396	0.00079966267	0.00022705697
0.22243835	0.034639176	0.00069865724	0.00022705697
0.22263528	0.027777778	0.0005609708	0.00022705697
0.22283222	0.02837171	0.00057051471	0.00022704482
0.22302915	0.033305578	0.00067512348	0.00022705697
0.22322609	0.034283355	0.0006917807	0.00022704482
0.22342302	0.031237155	0.00062890473	0.00022704482
0.22361995	0.035284352	0.00071389764	0.00022705697
0.22381689	0.03468208	0.00069995591	0.0002270627
0.22401384	0.036325678	0.00073774956	0.00022704482
0.22421077	0.029629629	0.00059676782	0.00022704482
0.2244077	0.035610765	0.00071997294	0.00022704482
0.22460464	0.031210987	0.0006317682	0.00022704482
0.22480157	0.034086242	0.0006863274	0.00022704482
0.2249985	0.031865828	0.0006476469	0.00022704482
0.22519544	0.028688524	0.00057613966	0.00022704482
0.22539237	0.023700623	0.00047882507	0.00022704482
0.22558931	0.023421163	0.00047478481	0.00022704482
0.22578624	0.021250511	0.00042456068	0.00022703838
0.22598319	0.024156602	0.00048778916	0.00022703265
0.22618012	0.028937578	0.00058353832	0.00022704482
0.22637706	0.030975303	0.00062863692	0.00022704482
0.22657399	0.024036469	0.00048400735	0.00022703265
0.22677092	0.028606964	0.0005776264	0.00022703265
0.22696786	0.039386403	0.00079709792	0.00022703265
0.22716479	0.033954453	0.00068581791	0.00022704482
0.22736172	0.029276453	0.00059369684	0.00022703265
0.22755866	0.021900827	0.00044042812	0.00022703265
0.22775559	0.028834099	0.00058452034	0.00022703265
0.22795253	0.026533997	0.00053561543	0.00022703838
0.22814947	0.027823919	0.00056211447	0.00022703265
0.22834641	0.033167496	0.00067050353	0.00022703265
0.22854334	0.025758205	0.0005206035	0.0002270205
0.22874027	0.027322404	0.00055502722	0.00022703265
0.22893721	0.030127941	0.00060751423	0.00022703265
0.22913414	0.021630615	0.00043649934	0.0002270205
0.22933108	0.025747508	0.00051972806	0.0002270205
0.22952801	0.025427261	0.00051427045	0.0002270205
0.22972494	0.024989588	0.0005054003	0.0002270205
0.22992188	0.020729685	0.00041725056	0.00022703838
0.23011883	0.018596787	0.00037743358	0.0002270205
0.23031576	0.026837325	0.00054057071	0.0002270205
0.23051269	0.020807324	0.00041942531	0.0002270205
0.23070963	0.0275	0.00055653887	0.0002270205
0.23090656	0.026119404	0.00052702782	0.00022700834
0.23110349	0.024748322	0.00050192204	0.00022700834
0.23130043	0.026700042	0.00054092036	0.0002270205
0.23149736	0.019966722	0.00040233406	0.0002270205
0.2316943	0.021720968	0.00043923754	0.0002270205
0.23189123	0.028642591	0.00057895313	0.00022701408
0.23208818	0.027242247	0.00055245287	0.00022700834
0.23228511	0.020815987	0.00041968733	0.00022700834
0.23248205	0.02131216	0.00043129697	0.00022700834
0.23267898	0.019689988	0.00039767803	0.00022700834
0.23287591	0.024937656	0.00050396804	0.00022700834
0.23307285	0.027603513	0.00055916124	0.00022700834
0.23326978	0.02585488	0.00052312156	0.00022700834
0.23346671	0.028797997	0.00058342278	0.00022700834
0.23366365	0.023549201	0.00047821755	0.00022700834
0.23386058	0.020033389	0.00040435104	0.00022701408
0.23405753	0.036333609	0.0007328816	0.00022699618
0.23425446	0.034076568	0.00069304288	0.00022700834
0.2344514	0.0272651	0.00055261416	0.00022699618
0.23464833	0.029251985	0.00059332181	0.00022699618
0.23484527	0.02215719	0.00044802195	0.00022700834
0.2350422	0.028428094	0.00057594536	0.00022700834
0.23523913	0.030239396	0.00061480474	0.00022699618
0.23543607	0.023313904	0.0004707606	0.00022699618
0.235633	0.030100334	0.00061032863	0.00022699618
0.23582993	0.025136154	0.00050869829	0.00022700192
0.23602688	0.028210526	0.00057322136	0.00022698403
0.23622382	0.024176741	0.00048825098	0.00022699618
0.23642075	0.026711185	0.00054112467	0.00022699618
0.23661768	0.025146689	0.00050988555	0.00022698403
0.23681462	0.027356902	0.00055594475	0.00022698403
0.23701155	0.023401588	0.00047372756	0.00022699618
0.23720849	0.024227235	0.00049067399	0.00022698403
0.23740542	0.023509655	0.00047685808	0.00022699618
0.23760235	0.020545073	0.00041593215	0.00022698403
0.23779929	0.02645947	0.00053735537	0.00022698977
0.23799624	0.025459098	0.00051481312	0.00022698403
0.23819317	0.028163094	0.00057242543	0.00022698403
0.2383901	0.021410579	0.00043377679	0.00022698403
0.23858704	0.02764977	0.00056148542	0.00022698403
0.23878397	0.035205364	0.00071575626	0.00022698403
0.2389809	0.030620806	0.00062212866	0.00022697187
0.23917784	0.023959646	0.00048654442	0.00022697187
0.23937477	0.023588879	0.00047911485	0.00022698403
0.23957171	0.024288107	0.00049207703	0.00022697187
0.23976864	0.021267723	0.00042977982	0.00022697762
0.23996559	0.026526315	0.00053911627	0.00022697187
0.24016252	0.026226735	0.00053416583	0.00022697187
0.24035946	0.033659991	0.00068974704	0.00022697187
0.24055639	0.027049873	0.00055117655	0.00022697187
0.24075332	0.027683135	0.00056592026	0.00022697187
0.24095026	0.029172029	0.00059936306	0.00022697187
0.24114719	0.023829788	0.00048679105	0.00022697187
0.24134412	0.026124196	0.00053570792	0.00022697187
0.24154106	0.026747195	0.00055058516	0.00022697187
0.24173799	0.034527406	0.00071194081	0.00022696547
0.24193494	0.025173612	0.00051955017	0.00022697187
0.24213187	0.019363167	0.00039685582	0.00022695972
0.24232881	0.026235243	0.00054289232	0.00022697187
0.24252574	0.023611719	0.00048822293	0.00022695972
0.24272268	0.022270743	0.00045963834	0.00022695972
0.24291961	0.027300749	0.00056776794	0.00022695972
0.24311654	0.019147085	0.00039452134	0.00022695972
0.24331348	0.027099067	0.00056597678	0.00022695972
0.24351041	0.027777778	0.00057875842	0.00022695972
0.24370734	0.031690139	0.00065958104	0.00022696547
0.24390429	0.026690392	0.00055803091	0.00022695972
0.24410123	0.02862254	0.00060054002	0.00022695972
0.24429816	0.036412079	0.00076150516	0.00022694757
0.24449509	0.024668798	0.00052192691	0.00022694757
0.24469203	0.023502303	0.00049888249	0.00022695972
0.24488896	0.018744143	0.00039946247	0.00022694757
0.2450859	0.019746121	0.0004221398	0.00022694757
0.24528283	0.018930431	0.00040595609	0.00022694757
0.24547976	0.020505484	0.00044216393	0.00022694757
0.2456767	0.014436958	0.00031109719	0.0002269533
0.24587364	0.017316017	0.00037395346	0.00022694757
0.24607058	0.021855269	0.00047541669	0.0002269354
0.24626751	0.018895349	0.00040981124	0.00022694757
0.24646445	0.022648942	0.00049599312	0.00022694757
0.24666138	0.025552826	0.00055983762	0.00022694757
0.24685831	0.016773557	0.00036680524	0.0002269354
0.24705525	0.017386984	0.00038172488	0.0002269354
0.24725218	0.028956566	0.00064020185	0.0002269354
0.24744911	0.016088488	0.00035515084	0.00022694757
0.24764605	0.013993003	0.00030562488	0.00022694115
0.247843	0.023162136	0.00051294896	0.0002269354
0.24803993	0.028629856	0.00064045034	0.0002269354
0.24823686	0.02409021	0.0005387016	0.0002269354
0.2484338	0.025967414	0.000578726	0.00022692325
0.24863073	0.026234567	0.00058791309	0.0002269354
0.24882767	0.017489713	0.00038985169	0.00022692325
0.2490246	0.028453182	0.00064012338	0.00022692325
0.24922153	0.025078369	0.00056661991	0.00022692325
0.24941847	0.030617541	0.00069030328	0.00022692325
0.2496154	0.021613073	0.00048937247	0.000226929
0.24981235	0.02375924	0.00053834077	0.00022692965
0.25000927	0.022976501	0.000517259	0.00022692325
0.2502062	0.0272	0.00062115747	0.0002269354
0.25040314	0.019597458	0.00044333067	0.0002269111
0.25060007	0.021092482	0.00048367018	0.0002269226
0.25079703	0.02457265	0.00056051963	0.0002269111
0.25099397	0.030091349	0.00069079484	0.0002269111
0.2511909	0.027672274	0.00063740817	0.0002269111
0.25138783	0.026386645	0.00060517073	0.0002269111
0.25158477	0.01907357	0.00043897293	0.0002269111
0.2517817	0.022379912	0.00051533594	0.0002269111
0.25197864	0.019178081	0.00044109634	0.0002269111
0.25217557	0.016620498	0.00038340822	0.0002269111
0.2523725	0.021953898	0.0005060368	0.0002269111
0.25256944	0.021122847	0.00049084908	0.0002269111
0.25276637	0.021099389	0.00048898184	0.0002269111
0.2529633	0.027359018	0.00063920754	0.0002268868
0.25316024	0.026463963	0.00061998185	0.0002269111
0.25335717	0.028425241	0.00066976069	0.0002269111
0.25355411	0.031048624	0.00074350741	0.0002269111
0.25375104	0.021058965	0.00050842453	0.0002269111
0.25394797	0.024758454	0.00060002133	0.0002268868
0.25414491	0.021498771	0.00052443804	0.0002269111
0.25434184	0.023402909	0.00057900668	0.0002269111
0.25453877	0.020833334	0.00052231568	0.0002269226
0.25473574	0.020819342	0.00052807759	0.0002268868
0.25493267	0.026566757	0.00068235875	0.0002269111
0.25512961	0.02364395	0.00061393407	0.0002269111
0.25532654	0.025550036	0.00067032047	0.0002269111
0.25552347	0.01675164	0.0004414359	0.0002268868
0.25572041	0.024242423	0.00065632851	0.0002269111
0.25591734	0.025931928	0.0007254071	0.0002269111
0.25611427	0.018916596	0.00054099859	0.0002268868
0.25631121	0.029223744	0.00086435123	0.0002268868
0.25650814	0.030160226	0.00090809067	0.0002268868
0.25670508	0.014520813	0.00043668621	0.0002268868
0.25690201	0.027484143	0.00087264157	0.0002268868
0.25709894	0.014590348	0.00046686106	0.0002268868
0.25729588	0.0377804	0.0012745882	0.0002268868
0.25749281	0.040767387	0.0013890963	0.0002268868
0.25768974	0.03018868	0.0010487988	0.0002268868
0.25788668	0.10219923	0.0030785906	0.0002268868
0.25808361	0.085447267	0.0021087409	0.0002268868
0.25828055	0.03009576	0.0010835624	0.0002268868
0.25847748	0.021459227	0.0007771927	0.00022689829
0.25867444	0.017467249	0.000633655	0.00022686248
0.25887138	0.0091743115	0.00031662462	0.00022686248
0.25906831	0.021604938	0.00081848085	0.00022686248
0.25926524	0.02852615	0.0010936062	0.0002268868
0.25946218	0.03846154	0.0015334284	0.00022686248
0.25965911	0.032258064	0.0012948192	0.0002268868
0.25985605	0.025996534	0.00104646	0.0002268868
0.26005298	0.026041666	0.0010441798	0.00022686248
0.26024991	0.024475524	0.00098701008	0.00022686248
0.26044685	0.025	0.0010189239	0.0002268868
0.26064378	0.035650622	0.0014683681	0.00022686248
0.26084071	0.03057554	0.0012591085	0.00022686248
0.26103765	0.040515654	0.0016965999	0.00022686248
0.26123458	0.029629629	0.001230553	0.00022686248
0.26143152	0.020754717	0.00084459642	0.0002268868
0.26162845	0.024029575	0.0009935007	0.00022686248
0.26182538	0.030592734	0.0012910753	0.00022686248
0.26202232	0.031311154	0.0013424547	0.00022686248
0.26221925	0.023809524	0.0010164182	0.00022686248
0.26241618	0.011472275	0.00045837794	0.00022684968
0.26261315	0.021825397	0.00092785864	0.00022683818
0.26281008	0.026422765	0.0011456618	0.00022686248
0.26300701	0.039014373	0.0017124239	0.00022686248
0.26320395	0.014084507	0.00058550067	0.00022683818
0.26340088	0.029598309	0.0013128151	0.00022686248
0.26359782	0.029288704	0.0012922562	0.00022683818
0.26379475	0.01923077	0.00083899999	0.00022686248
0.26399168	0.036324788	0.0016247166	0.00022683818
0.26418862	0.036956523	0.0016673151	0.00022683818
0.26438555	0.035794184	0.0016410835	0.00022683818
0.26458248	0.032036614	0.0014784648	0.00022683818
0.26477942	0.015695067	0.00068882643	0.00022683818
0.26497635	0.011655011	0.0005038901	0.00022686248
0.26517329	0.011655011	0.0005038901	0.00022683818
0.26537022	0.017114915	0.0007844608	0.00022683818
0.26556715	0.021634616	0.0010012647	0.00022683818
0.26576409	0.017326733	0.00079908088	0.00022683818
0.26596102	0.022727273	0.0010781334	0.00022683818
0.26615795	0.028497409	0.0013847733	0.00022683818
0.26635489	0.023017902	0.0010988975	0.00022684968
0.26655185	0.010610079	0.00047386577	0.00022681388
0.26674879	0.024657534	0.001218492	0.00022683818
0.26694572	0.02972973	0.0014756435	0.00022683818
0.26714265	0.04109589	0.0020809711	0.00022681388
0.26733959	0.014124294	0.00067239488	0.00022681388
0.26753652	0.02	0.00099116028	0.00022681388
0.26773345	0.018126888	0.00091091043	0.00022683818
0.26793039	0.017910447	0.00089462817	0.00022683818
0.26812732	0.0029585799	0	0.00022683818
0.26832426	0.0093750004	0.00042857844	0.00022683818
0.26852119	0.012698413	0.00062060496	0.00022683818
0.26871812	0.012861736	0.00063262944	0.00022683818
0.26891506	0.012861736	0.00063262944	0.00022681388
0.26911199	0.0033670033	0	0.00022683818
0.26930892	0.013422819	0.00067452202	0.00022683818
0.26950586	0.020761246	0.0011167772	0.00022683818
0.26970279	0.01718213	0.00090244977	0.00022681388
0.26989973	0.018115941	0.00097710115	0.00022681388
0.27009666	0.026217228	0.0014882386	0.00022681388
0.27029359	0.015267176	0.00081840652	0.00022684968
0.27049056	0.0036630037	0	0.00022681388
0.27068749	0.0077821012	0.00034392352	0.00022681388
0.27088442	0.016064256	0.00088341633	0.00022681388
0.27108136	0.025104603	0.0014855055	0.00022681388
0.27127829	0.021008404	0.0012205733	0.00022681388
0.27147523	0.014184397	0.00084767985	0.00022681388
0.27167216	0	0	0.00022681388
0.27186909	0	0	0.00022681388
0.27206603	0	0	0.00022681388
0.27226296	0	0	0.00022681388
