#   DataFileName=PAL30_40C_WAXS_08172017.tif
#   DataFileType=.tif
#   
#   DataFilePath=E:DATA:PAL30_08262017:
#   
#   Processed on=Wed, Jan 16, 2019,2:40:53 AM
#   Units=Arbitrary
#   SampleThickness=1
#   SampleTransmission=1
#   CorrectionFactor=1
#   SampleMeasurementTime=1
#   EmptyMeasurementTime=1
#   BackgroundMeasTime=1
#   SampleI0=1
#   EmptyI0=1
#   Nika_SampleToDetectorDistacne=1552.1
#   Nika_Wavelength=1.54
#   Nika_XrayEnergy=8.0509
#   Nika_PixelSizeX=0.075
#   Nika_PixelSizeY=0.075
#   Nika_HorizontalTilt=0
#   Nika_VerticalTilt=0
#   Nika_BeamCenterX=1540.3
#   Nika_BeamCenterY=830.17
#   Nika_BeamSizeX=0
#   Nika_BeamCenterY=830.17
#   CalibrationFormula=1*((Sa2D))
#   CurrentMaskFileName=PAL30_30C_WAXS_mask.hdf
#   QvectorMaxNumPnts=1
#   QvectorNumberPoints=1383
#   CircularAverage=1
#   PolarizationCorrection=None
#   UncertainityCalculationMethod=OldNikaMethod

0.0060065244	15.5	10.488089	0.00022756745
0.00620346	10.52	2.0917296	0.00022756765
0.0064003952	8.4561405	1.1167649	0.00022756765
0.0065973303	8.1000004	0.90429485	0.00022756765
0.0067942655	10.734694	1.0810877	0.00022756765
0.0069912006	12.850468	1.2289383	0.00022756745
0.0071881362	15.573771	1.3860371	0.00022756727
0.0073850714	17.022902	1.4601135	0.00022756727
0.0075820065	17.406897	1.4248829	0.00022756727
0.0077789417	16	1.3021613	0.00022756745
0.0079758773	14.689874	1.1557556	0.00022756746
0.0081728119	13.564417	1.0502261	0.00022756707
0.0083697475	12.19663	0.90515506	0.00022756671
0.0085666822	10.160622	0.72394401	0.00022756783
0.0087636178	9.6871796	0.68675756	0.00022756783
0.0089605534	8.0189571	0.54696852	0.00022756746
0.0091574881	7.6550217	0.50195301	0.00022756707
0.0093544237	6.848	0.42990494	0.00022756671
0.0095513584	6.1444869	0.37651426	0.00022756707
0.009748294	5.7426472	0.34573081	0.00022756707
0.0099452296	4.9675088	0.29641068	0.00022756595
0.010142164	4.7733812	0.28441262	0.00022756707
0.0103391	4.3939395	0.2536315	0.00022756671
0.010536035	4.1254239	0.2386815	0.00022756707
0.01073297	3.8848684	0.22154662	0.00022756783
0.010929906	3.3858521	0.1908915	0.00022756746
0.01112684	3.4920127	0.19611748	0.00022756783
0.011323776	3.0421686	0.16606809	0.00022756746
0.011520711	2.9237804	0.16043209	0.00022756707
0.011717646	2.5384614	0.13742074	0.00022756707
0.011914582	2.4824562	0.13357326	0.00022756746
0.012111517	2.5536232	0.13685773	0.00022756783
0.012308452	2.1978023	0.11460136	0.00022756671
0.012505387	2.1355932	0.11300615	0.00022756783
0.012702323	1.9788359	0.10131602	0.00022756783
0.012899258	1.919571	0.098881617	0.00022756671
0.013096193	1.7905759	0.091197126	0.00022756707
0.013293128	1.6956521	0.085313313	0.00022756671
0.013490063	1.6520618	0.083502986	0.00022756707
0.013686999	1.4583334	0.071763411	0.00022756707
0.013883934	1.4549879	0.071498565	0.00022756671
0.014080869	1.4688995	0.071649179	0.00022756707
0.014277805	1.3223529	0.063852921	0.00022756671
0.014474739	1.2600473	0.060974225	0.0002275663
0.014671675	1.1851016	0.056077238	0.00022756707
0.014868611	1.1068182	0.052563075	0.00022756671
0.015065545	1.0835165	0.050650802	0.0002275663
0.015262481	1.1287553	0.05213796	0.00022756671
0.015459416	1.0395604	0.048601851	0.00022756595
0.01565635	1	0.046023987	0.00022756707
0.015853286	0.90445858	0.041536629	0.00022756554
0.016050221	0.91134018	0.041217938	0.00022756707
0.016247157	0.9716599	0.043561283	0.00022756707
0.016444093	0.76599997	0.034148559	0.00022756483
0.016641026	0.81124496	0.036243878	0.00022756707
0.016837962	0.74949902	0.03345377	0.00022756707
0.017034898	0.75097275	0.033037212	0.00022756554
0.017231833	0.74378586	0.032448065	0.00022756554
0.017428769	0.7381404	0.03207057	0.00022756483
0.017625703	0.65607476	0.028264683	0.00022756554
0.017822638	0.61824954	0.026599932	0.00022756554
0.018019574	0.59742647	0.02554014	0.00022756554
0.018216509	0.57299268	0.024408534	0.00022756554
0.018413445	0.57960641	0.024452407	0.00022756483
0.018610379	0.56713784	0.023774186	0.00022756554
0.018807314	0.478185	0.019917339	0.00022756554
0.01900425	0.57019067	0.023680005	0.00022756554
0.019201186	0.55419582	0.02310879	0.00022756554
0.019398121	0.49581239	0.020245424	0.00022756483
0.019595055	0.47966102	0.01968905	0.00022756554
0.019791991	0.507438	0.020580985	0.00022756554
0.019988926	0.45785123	0.01856586	0.00022756554
0.020185862	0.42483661	0.017126687	0.00022756554
0.020382797	0.43152866	0.017170474	0.00022756483
0.020579731	0.44498381	0.017837815	0.00022756403
0.020776667	0.46238244	0.018265337	0.00022756403
0.020973602	0.41314554	0.016296634	0.00022756554
0.021170538	0.41718751	0.01644977	0.00022756403
0.021367474	0.37405732	0.01448297	0.0002275633
0.021564407	0.41021672	0.016100317	0.00022756403
0.021761343	0.38714498	0.014933803	0.00022756403
0.021958278	0.3800905	0.014723471	0.00022756403
0.022155214	0.3274596	0.012513614	0.00022756403
0.02235215	0.34738371	0.013212034	0.0002275633
0.022549083	0.36710718	0.014033022	0.00022756403
0.022746019	0.31347519	0.011770796	0.00022756403
0.022942955	0.34433284	0.01301037	0.00022756403
0.02313989	0.26591229	0.0099714324	0.00022756403
0.023336826	0.29009762	0.010803804	0.0002275633
0.02353376	0.29957807	0.011204114	0.00022756403
0.023730695	0.31750339	0.011667367	0.00022756403
0.023927631	0.30758619	0.011394166	0.0002275625
0.024124566	0.33780161	0.012339987	0.00022756403
0.024321502	0.30965146	0.011309511	0.00022756179
0.024518436	0.30469799	0.0111344	0.0002275625
0.024715371	0.25559947	0.0092467163	0.0002275625
0.024912307	0.28137386	0.010201501	0.0002275625
0.025109243	0.28516623	0.010174151	0.0002275625
0.025306178	0.26520053	0.0095155463	0.00022756179
0.025503112	0.2707535	0.0096499743	0.0002275625
0.025700048	0.23634054	0.0083989846	0.0002275625
0.025896983	0.27099237	0.0096410634	0.0002275625
0.026093919	0.23645321	0.0082745673	0.00022756097
0.026290854	0.22084367	0.0077531943	0.00022756179
0.026487788	0.22804879	0.0079418486	0.0002275625
0.026684724	0.25305623	0.0088256905	0.00022756097
0.026881659	0.23873325	0.0083069243	0.0002275625
0.027078595	0.23508354	0.0080993567	0.00022756097
0.027275531	0.22141998	0.0076583102	0.00022756179
0.027472464	0.23399301	0.0079647265	0.00022756097
0.0276694	0.23522459	0.008065057	0.00022756097
0.027866336	0.16937356	0.005747268	0.00022756097
0.028063271	0.23372093	0.0079466747	0.00022756097
0.028260207	0.21445221	0.0073027932	0.00022756026
0.028457141	0.19640853	0.0065598311	0.00022756097
0.028654076	0.18161181	0.0060974509	0.00022756097
0.028851012	0.22147651	0.007387381	0.00022756097
0.029047947	0.22508399	0.0075114253	0.00022756097
0.029244883	0.20022497	0.0066972314	0.00022756026
0.029441817	0.18954249	0.0062362538	0.00022756097
0.029638752	0.20549451	0.0067924908	0.00022755946
0.029835688	0.18985976	0.0062186001	0.00022756097
0.030032624	0.19354838	0.0063285208	0.00022755946
0.030229559	0.2034632	0.0066760071	0.00022755875
0.030426493	0.19893616	0.0064720483	0.00022755946
0.030623429	0.18743344	0.0060995347	0.00022755946
0.030820364	0.18885449	0.0060497699	0.00022755946
0.0310173	0.18086225	0.0058466843	0.00022755946
0.031214235	0.19294606	0.0061977995	0.00022755946
0.031411171	0.16427104	0.0052477415	0.00022755875
0.031608105	0.17269906	0.0055362419	0.00022755571
0.031805038	0.17694642	0.0056098043	0.00022756017
0.032001976	0.16076845	0.0050949622	0.00022755875
0.03219891	0.15879397	0.005018448	0.00022756017
0.032395847	0.15384616	0.0048475745	0.00022755875
0.032592781	0.1489573	0.0046775523	0.00022755875
0.032789715	0.17123288	0.0053414442	0.00022756017
0.032986652	0.16650246	0.005211283	0.00022755571
0.033183586	0.16747808	0.0052098189	0.00022755713
0.033380523	0.18111753	0.0056076003	0.00022755875
0.033577457	0.17148362	0.0053078276	0.00022755571
0.033774391	0.15252621	0.0046947729	0.00022755713
0.033971328	0.14503817	0.0044658617	0.00022755571
0.034168262	0.16650899	0.0051070596	0.00022756017
0.0343652	0.15739869	0.0048178788	0.00022755571
0.034562133	0.13927576	0.0042298264	0.00022755571
0.034759067	0.17346939	0.0052692741	0.00022756017
0.034956004	0.15462963	0.0046907542	0.00022755571
0.035152938	0.17442922	0.0052579329	0.00022755713
0.035349876	0.15875912	0.0047813342	0.00022755571
0.035546809	0.12794918	0.0038402206	0.00022755571
0.035743743	0.14130434	0.0042391	0.00022755713
0.035940681	0.13991031	0.0041756406	0.00022755571
0.036137614	0.1474245	0.0043796906	0.00022755713
0.036334552	0.14653641	0.0043523922	0.00022755266
0.036531486	0.14373897	0.004255903	0.00022755266
0.036728419	0.16402116	0.0048576356	0.00022755713
0.036925357	0.15652174	0.004602165	0.00022755571
0.037122291	0.15725456	0.0046223686	0.00022755713
0.037319228	0.13864818	0.004068329	0.00022755571
0.037516162	0.12383376	0.0035944325	0.00022755266
0.037713096	0.14652957	0.0042768405	0.00022755713
0.037910033	0.13798977	0.0040151654	0.00022755266
0.038106967	0.13825275	0.0040137558	0.00022755409
0.038303904	0.15105486	0.0043758764	0.00022755266
0.038500838	0.12978369	0.0037320235	0.00022755266
0.038697772	0.17190082	0.0049305717	0.00022755409
0.038894709	0.16142385	0.0046328506	0.00022755266
0.039091643	0.14309347	0.0041034794	0.00022755409
0.03928858	0.1352459	0.0038606261	0.00022755266
0.039485514	0.14865963	0.004224767	0.00022755266
0.039682448	0.1551584	0.004410292	0.00022755409
0.039879385	0.1188755	0.003358382	0.00022755266
0.040076319	0.1304	0.0036774341	0.00022755409
0.040273257	0.15008026	0.0042399638	0.00022754962
0.04047019	0.14399363	0.0040496616	0.00022754962
0.040667124	0.14535345	0.0040853154	0.00022755409
0.040864062	0.14308053	0.0039893626	0.00022755266
0.041060995	0.14930016	0.0041523795	0.00022755409
0.041257933	0.1599064	0.0044556921	0.00022754962
0.041454867	0.107393	0.0029852197	0.00022755266
0.0416518	0.1307393	0.003636017	0.00022755409
0.041848738	0.13435115	0.0037017516	0.00022754962
0.042045671	0.11406844	0.0031344588	0.00022754801
0.042242609	0.12471483	0.0034283169	0.00022754657
0.042439543	0.12376613	0.0033996964	0.00022754353
0.042636476	0.13448535	0.0036761758	0.00022754801
0.042833414	0.125	0.0034196998	0.00022754657
0.043030348	0.16131441	0.0043984246	0.00022754801
0.043227285	0.12186115	0.0033021744	0.00022754353
0.043424219	0.15106854	0.0040911678	0.00022754353
0.043621153	0.15661764	0.0042370618	0.00022754801
0.04381809	0.12756598	0.0034439925	0.00022754353
0.044015024	0.15069495	0.004065664	0.00022754495
0.044211961	0.13985507	0.0037551506	0.00022754353
0.044408895	0.12733813	0.0034059447	0.00022754353
0.044605829	0.14511494	0.003879905	0.00022754495
0.044802766	0.13414635	0.0035828329	0.00022754353
0.0449997	0.11206281	0.002984232	0.00022754495
0.045196638	0.13215548	0.0035036542	0.00022754353
0.045393571	0.11985815	0.0031826266	0.00022754353
0.045590505	0.11913104	0.0031440356	0.00022754495
0.045787442	0.11851332	0.0031289794	0.00022754048
0.045984376	0.11597222	0.0030471513	0.00022754191
0.046181314	0.12144344	0.0031899009	0.00022754353
0.046378247	0.13674033	0.0035837698	0.00022754048
0.046575181	0.11187845	0.0029297755	0.00022754191
0.046772119	0.12885538	0.0033635178	0.00022754353
0.046969052	0.1238938	0.0032232373	0.00022754495
0.04716599	0.12474438	0.0032472538	0.00022754048
0.047362924	0.1212938	0.0031392726	0.00022754048
0.047559857	0.11260054	0.0029054333	0.00022754495
0.047756795	0.11954331	0.0030884345	0.00022754048
0.047953729	0.14285715	0.0036893517	0.00022754495
0.048150666	0.14333113	0.0036832674	0.00022754048
0.0483476	0.13603185	0.0034945053	0.00022754048
0.048544534	0.13621481	0.0034762246	0.00022754191
0.048741471	0.11865524	0.0030365249	0.00022753744
0.048938405	0.11791531	0.0029990755	0.00022754191
0.049135342	0.12123198	0.0030938475	0.00022754048
0.049332276	0.11795204	0.0029930267	0.00022753744
0.04952921	0.11836999	0.0030004259	0.00022753887
0.049726147	0.13733076	0.003476074	0.00022753744
0.049923081	0.11842939	0.0029704119	0.00022754191
0.050120018	0.14002557	0.0035304031	0.00022753744
0.050316952	0.11644274	0.0029348582	0.00022753744
0.050513886	0.12190476	0.0030621665	0.00022753887
0.050710823	0.13062778	0.0032791258	0.00022753744
0.050907757	0.14214773	0.0035315773	0.00022753887
0.051104695	0.116802	0.0029091323	0.00022753744
0.051301628	0.1554307	0.0038732914	0.00022753744
0.051498562	0.10237204	0.0025479207	0.00022753887
0.0516955	0.1100804	0.0027277877	0.00022753744
0.051892433	0.12239902	0.0030178998	0.00022753887
0.052089371	0.11296296	0.0027971657	0.0002275344
0.052286305	0.13539769	0.0033265199	0.00022753744
0.052483238	0.11246201	0.0027624238	0.00022753583
0.052680176	0.11610942	0.002853208	0.0002275344
0.052877109	0.12583587	0.0030926657	0.00022753887
0.053074047	0.11874624	0.002905315	0.0002275344
0.053270981	0.11462686	0.0027905749	0.00022753744
0.053467914	0.11873508	0.0028899661	0.00022753887
0.053664852	0.12026862	0.002960992	0.0002275344
0.053861786	0.12321982	0.0030566712	0.00022753583
0.054058723	0.12141968	0.0030187406	0.0002275344
0.054255657	0.12492269	0.0030969642	0.0002275344
0.054452591	0.13320826	0.0033208488	0.00022753583
0.054649528	0.11291329	0.0028092044	0.0002275344
0.054846462	0.14357367	0.0035838983	0.00022753583
0.055043399	0.12161311	0.0030407778	0.00022753136
0.055240333	0.12444725	0.0031173211	0.0002275344
0.055437267	0.11846251	0.002963644	0.00022753583
0.055634204	0.13454318	0.0033545885	0.00022753136
0.055831138	0.1241292	0.003113542	0.00022753279
0.056028076	0.11202013	0.0027999526	0.00022753136
0.056225009	0.10872313	0.0027235267	0.00022753136
0.056421943	0.12380344	0.0031167623	0.00022753279
0.05661888	0.13576367	0.0033936377	0.00022753136
0.056815814	0.12633564	0.0031568767	0.00022753279
0.057012752	0.12025317	0.003013738	0.00022753136
0.057209685	0.14393939	0.0036054163	0.00022752832
0.057406619	0.10606061	0.0026551154	0.00022753279
0.057603557	0.14087176	0.0035294658	0.00022753136
0.05780049	0.12151898	0.0030463904	0.00022753279
0.057997428	0.1451005	0.0036265266	0.00022752832
0.058194362	0.14772727	0.003701142	0.00022752832
0.058391295	0.153506	0.0038475397	0.00022752974
0.058588233	0.14097744	0.0035184671	0.00022752832
0.058785167	0.14177215	0.0035561856	0.00022752974
0.058982104	0.12319296	0.0030775685	0.00022752832
0.059179038	0.14133166	0.0035301235	0.00022752832
0.059375972	0.16425425	0.0041103601	0.00022752974
0.059572909	0.14724311	0.0036748399	0.00022752528
0.059769843	0.13106491	0.0032789351	0.00022752974
0.05996678	0.13011153	0.0032282469	0.00022752528
0.060163714	0.12224323	0.0030570354	0.00022752528
0.060360648	0.13591023	0.0033826968	0.00022752974
0.060557585	0.12836568	0.0032007892	0.00022752528
0.060754519	0.11449907	0.0028461327	0.0002275267
0.060951456	0.13607991	0.0033894656	0.00022752528
0.06114839	0.14872433	0.0036990196	0.00022752528
0.061345324	0.12577833	0.0031274532	0.0002275267
0.061542261	0.11677019	0.002899773	0.00022752528
0.061739195	0.11442786	0.0028428002	0.0002275267
0.061936133	0.11593305	0.0028756445	0.00022752528
0.062133066	0.11509901	0.0028525505	0.00022752528
0.06233	0.11138462	0.0027519988	0.00022752528
0.062526934	0.11495674	0.0028485893	0.0002275251
0.062723875	0.097394541	0.0024164252	0.00022751919
0.062920809	0.11652281	0.0028829775	0.00022752528
0.063117743	0.10849349	0.0026906834	0.00022751919
0.063314676	0.11138311	0.0027458773	0.00022751919
0.06351161	0.10262676	0.0025269238	0.00022752814
0.063708551	0.10055181	0.0024798829	0.00022751919
0.063905485	0.10197775	0.0025255992	0.00022751919
0.064102419	0.10060976	0.0024739315	0.00022751919
0.064299352	0.09736681	0.0024000129	0.00022752528
0.064496286	0.097620502	0.0024015564	0.00022752205
0.064693227	0.088092342	0.0021622966	0.00022751919
0.064890161	0.096969694	0.0023777636	0.00022751919
0.065087095	0.10690287	0.002632237	0.00022752528
0.065284029	0.092241906	0.0022711633	0.00022752528
0.065480962	0.095641643	0.0023438055	0.00022752205
0.065677904	0.092659444	0.0022636564	0.00022752528
0.065874837	0.10223836	0.002504952	0.00022751919
0.066071771	0.088500902	0.0021627501	0.00022751919
0.066268705	0.085852481	0.0021023874	0.00022751919
0.066465639	0.095123418	0.0023251537	0.00022752205
0.06666258	0.1	0.0024377066	0.00022751919
0.066859514	0.094488189	0.0023158884	0.00022751919
0.067056447	0.10760999	0.0026145603	0.00022751919
0.067253381	0.098027498	0.002387695	0.00022751919
0.067450315	0.089659296	0.002182629	0.00022751596
0.067647256	0.099401198	0.0024227668	0.00022751919
0.06784419	0.085131891	0.0020755534	0.00022751919
0.068041123	0.089349113	0.0021646672	0.00022751311
0.068238057	0.10847659	0.0026315295	0.00022751311
0.068434991	0.10041592	0.0024390356	0.00022752205
0.068631932	0.10579196	0.0025627157	0.00022751311
0.068828866	0.091507174	0.0022287273	0.00022751311
0.0690258	0.082992405	0.001998489	0.00022751311
0.069222733	0.087367177	0.0021147935	0.00022751311
0.069419667	0.080969267	0.001960549	0.00022751596
0.069616608	0.09026964	0.0021769102	0.00022751311
0.069813542	0.080446273	0.0019410588	0.00022751311
0.070010476	0.091283865	0.0022068112	0.00022751311
0.07020741	0.094506793	0.0022887266	0.00022751311
0.070404343	0.087810516	0.0021029313	0.00022752205
0.070601285	0.091068298	0.0021923676	0.00022751311
0.070798218	0.089482859	0.002148689	0.00022751311
0.070995152	0.094428152	0.0022784658	0.00022751311
0.071192086	0.096322238	0.0023184877	0.00022751311
0.071389019	0.074798621	0.0017850175	0.00022751596
0.071585961	0.085846871	0.00205897	0.00022750701
0.071782894	0.083236992	0.0019929875	0.00022751311
0.071979828	0.075449795	0.0018097883	0.00022751311
0.072176762	0.06801153	0.0016245667	0.00022751311
0.072373696	0.082521491	0.0019671489	0.00022751596
0.072570637	0.088115945	0.002113638	0.00022751311
0.072767571	0.094940305	0.0022556742	0.00022750701
0.072964504	0.080439813	0.0019270567	0.00022750701
0.073161438	0.081771724	0.0019403955	0.00022751311
0.073358372	0.077803202	0.001852571	0.00022750988
0.073555313	0.076036863	0.001816963	0.00022750701
0.073752247	0.083097793	0.0019672504	0.00022751311
0.073949181	0.077054791	0.0018330812	0.00022750701
0.074146114	0.06564799	0.0015542476	0.00022751311
0.074343048	0.073017687	0.0017361351	0.00022750988
0.074539989	0.064735949	0.0015345098	0.00022750701
0.074736923	0.070430405	0.0016577347	0.00022750701
0.074933857	0.073989756	0.0017573962	0.00022750701
0.07513079	0.066441439	0.0015690814	0.00022750701
0.075327724	0.065315314	0.0015422143	0.0002275038
0.075524665	0.068169013	0.0016100118	0.00022750701
0.075721599	0.077950999	0.0018309404	0.00022750093
0.075918533	0.087274775	0.0020630115	0.00022750701
0.076115467	0.084499158	0.0019908869	0.00022750701
0.0763124	0.069235064	0.0016291849	0.00022750988
0.076509342	0.065628476	0.0015405894	0.00022750701
0.076706275	0.082176566	0.0019290341	0.00022750701
0.076903209	0.07399103	0.0017442156	0.00022750701
0.077100143	0.068319559	0.0015964477	0.00022750093
0.077297077	0.06984479	0.0016369941	0.0002275038
0.077494018	0.062847607	0.0014748269	0.00022750093
0.077690952	0.083012648	0.0019389163	0.00022750093
0.077887885	0.061838441	0.0014521992	0.00022750093
0.078084819	0.078431375	0.0018234095	0.00022750093
0.078281753	0.07099615	0.0016585318	0.0002275038
0.078478694	0.07099615	0.0016580289	0.00022750093
0.078675628	0.0780994	0.0018181098	0.00022750093
0.078872561	0.094266817	0.0022059076	0.00022750093
0.079069495	0.069209807	0.0016085163	0.00022750093
0.079266429	0.074740864	0.0017382327	0.0002275038
0.07946337	0.064885497	0.0015079726	0.00022750093
0.079660304	0.070849106	0.0016410254	0.00022750093
0.079857238	0.06444566	0.0014991212	0.00022750093
0.080054171	0.066522442	0.0015399159	0.00022750093
0.080251105	0.061035421	0.0014177026	0.0002275038
0.080448046	0.07277628	0.001682799	0.00022749485
0.08064498	0.0738758	0.0017020917	0.00022750093
0.080841914	0.060704608	0.0014064168	0.00022750093
0.081038848	0.06759657	0.0015582829	0.00022749485
0.081235781	0.082251079	0.0019057991	0.00022749772
0.081432723	0.078441836	0.0018048967	0.00022749485
0.081629656	0.072533332	0.0016681786	0.00022749485
0.08182659	0.055168718	0.0012697107	0.00022749485
0.082023524	0.061734967	0.0014166062	0.00022749485
0.082220457	0.065740243	0.0015124267	0.00022749772
0.082417399	0.06666667	0.0015321559	0.00022749485
0.082614332	0.063863754	0.0014663049	0.00022749485
0.082811266	0.08072225	0.0018534679	0.00022749485
0.0830082	0.058421053	0.0013334778	0.00022749485
0.083205134	0.072938688	0.0016699794	0.00022749163
0.083402075	0.076597996	0.0017530568	0.00022749485
0.083599009	0.070782334	0.0016257061	0.00022749485
0.083795942	0.068730325	0.0015679523	0.00022748877
0.083992876	0.066526979	0.0015158844	0.00022749485
0.08418981	0.067539267	0.0015385844	0.00022749772
0.084386751	0.066980638	0.0015254875	0.00022748877
0.084583685	0.061683219	0.0014038581	0.00022749485
0.084780619	0.060385216	0.0013712187	0.00022749485
0.084977552	0.06941545	0.0015791053	0.00022748877
0.085174486	0.084281281	0.0019094874	0.00022749163
0.085371427	0.063442536	0.0014402958	0.00022748877
0.085568361	0.06484817	0.001465041	0.00022748877
0.085765295	0.06430041	0.0014520476	0.00022748877
0.085962228	0.067778938	0.001540884	0.00022748877
0.086159162	0.073635429	0.001664783	0.00022748555
0.086356103	0.062181447	0.0013969892	0.00022748877
0.086553037	0.059034906	0.0013308574	0.00022748877
0.086749971	0.063991874	0.0014352924	0.00022748877
0.086946905	0.07150206	0.0016144166	0.00022748268
0.087143838	0.060314242	0.0013515261	0.00022749163
0.08734078	0.069862314	0.0015712462	0.00022748877
0.087537713	0.062816612	0.001407378	0.00022748268
0.087734647	0.068791099	0.0015404848	0.00022748877
0.087931581	0.063516259	0.0014254703	0.00022748877
0.088128515	0.062782519	0.0014011088	0.00022748555
0.088325456	0.077039272	0.0017222267	0.00022748268
0.08852239	0.067848101	0.001520013	0.00022748268
0.088719323	0.068397403	0.0015222414	0.00022748268
0.088916257	0.059118237	0.0013169086	0.00022748268
0.089113191	0.059940059	0.0013333424	0.00022748555
0.089310132	0.054445554	0.0012104067	0.00022748268
0.089507066	0.056274902	0.0012498862	0.00022748268
0.089703999	0.074404761	0.0016506715	0.00022748268
0.089900933	0.057500001	0.0012795775	0.00022748268
0.090097867	0.049680274	0.0010953296	0.00022747947
0.090294808	0.061316051	0.0013630528	0.00022748268
0.090491742	0.066600889	0.0014734304	0.00022748268
0.090688676	0.060306475	0.0013349059	0.00022748268
0.090885609	0.058736425	0.0012984616	0.0002274766
0.091082543	0.068439193	0.0015125758	0.00022748268
0.091279477	0.062469259	0.0013791376	0.00022748555
0.091476418	0.067388095	0.0014884261	0.0002274766
0.091673352	0.059570312	0.0013100894	0.00022748268
0.091870286	0.060873833	0.0013419669	0.0002274766
0.092067219	0.07639569	0.0016845401	0.0002274766
0.092264153	0.069620252	0.0015303186	0.00022747947
0.092461094	0.064390242	0.0014163534	0.0002274766
0.092658028	0.060635697	0.0013346246	0.0002274766
0.092854962	0.056119982	0.0012281422	0.0002274766
0.093051895	0.059932336	0.0013118108	0.0002274766
0.093248829	0.053423993	0.0011705166	0.00022747337
0.09344577	0.055099081	0.0012056459	0.0002274766
0.093642704	0.065111756	0.001429299	0.00022747052
0.093839638	0.054966249	0.0012006344	0.0002274766
0.094036572	0.070707068	0.0015437981	0.0002274766
0.094233505	0.070809245	0.0015475076	0.00022747947
0.094430447	0.090517238	0.0019739158	0.00022747052
0.09462738	0.066183574	0.0014484579	0.00022747052
0.094824314	0.063127689	0.0013748145	0.00022747052
0.095021248	0.067017712	0.0014595167	0.00022747052
0.095218182	0.067586862	0.0014682687	0.00022747337
0.095415123	0.060678452	0.001320665	0.00022747052
0.095612057	0.062410671	0.0013564739	0.00022747052
0.09580899	0.070851162	0.0015392607	0.00022747052
0.096005924	0.057894737	0.0012604876	0.00022747052
0.096202858	0.061640587	0.0013365818	0.00022747337
0.096399799	0.058628842	0.0012689078	0.00022747052
0.096596733	0.075729072	0.0016366668	0.00022746444
0.096793666	0.059546314	0.0012885778	0.00022747052
0.0969906	0.062381852	0.0013505965	0.00022746444
0.097187534	0.065975495	0.0014264055	0.00022747337
0.097384475	0.062352385	0.0013492487	0.00022746444
0.097581409	0.070018798	0.0015120739	0.00022747052
0.097778343	0.067007914	0.0014402136	0.00022746444
0.097975276	0.07247059	0.0015664325	0.00022746444
0.09817221	0.055970151	0.0012031614	0.00022746729
0.098369151	0.052333806	0.0011310227	0.00022746444
0.098566085	0.055581287	0.0011903086	0.00022746444
0.098763019	0.059016392	0.0012711697	0.00022746444
0.098959953	0.05319149	0.0011382047	0.00022746444
0.099156886	0.050346419	0.0010756563	0.00022746121
0.099353828	0.070494868	0.0015171289	0.00022746444
0.099550761	0.052509293	0.0011259129	0.00022745834
0.099747695	0.050714616	0.0010835943	0.00022745834
0.099944629	0.069842741	0.0014965197	0.00022745834
0.10014156	0.057471264	0.0012268641	0.00022746121
0.1003385	0.059067834	0.0012633528	0.00022745834
0.10053544	0.065137617	0.0013893113	0.00022746444
0.10073237	0.059014872	0.0012660056	0.00022745834
0.1009293	0.065994501	0.0014071814	0.00022746444
0.10112624	0.067727275	0.0014381831	0.00022746121
0.10132318	0.055147059	0.0011764673	0.00022746444
0.10152011	0.055883691	0.0011860374	0.00022745834
0.10171705	0.05395519	0.0011480234	0.00022745834
0.10191398	0.055150412	0.0011721629	0.00022745834
0.10211091	0.054362722	0.0011567206	0.00022746121
0.10230786	0.055934515	0.00118726	0.00022745834
0.10250479	0.059222423	0.0012536333	0.00022745226
0.10270172	0.05135135	0.0010845669	0.00022745226
0.10289866	0.06332574	0.0013464501	0.00022745226
0.10309559	0.064981952	0.0013750494	0.00022745512
0.10329253	0.067543067	0.0014326441	0.00022745226
0.10348947	0.060986549	0.001286503	0.00022745834
0.1036864	0.060360361	0.0012758592	0.00022745226
0.10388333	0.059668012	0.0012587721	0.00022745226
0.10408027	0.067026541	0.0014160463	0.00022746121
0.10427721	0.069506727	0.0014662916	0.00022745226
0.10447414	0.072678328	0.0015340383	0.00022745226
0.10467108	0.06327986	0.0013307583	0.00022745226
0.10486801	0.058113545	0.0012235043	0.00022745226
0.10506494	0.074057646	0.001554255	0.00022745512
0.10526188	0.070378616	0.0014795513	0.00022745226
0.10545882	0.074753806	0.0015765098	0.00022744617
0.10565575	0.07532122	0.0015805764	0.00022745226
0.10585269	0.082593247	0.001735086	0.00022745226
0.10604962	0.093639575	0.0019630226	0.00022745512
0.10624656	0.09026549	0.0018936847	0.00022744617
0.10644349	0.09223301	0.0019323727	0.00022744617
0.10664043	0.090268604	0.0018891417	0.00022745226
0.10683736	0.094648384	0.0019848917	0.00022744617
0.1070343	0.11795775	0.002469447	0.00022744904
0.10723124	0.099256665	0.0020704658	0.00022744617
0.10742817	0.11321586	0.0023709668	0.00022744617
0.1076251	0.10976139	0.002280883	0.00022744617
0.10782204	0.10197802	0.0021329804	0.00022744617
0.10801897	0.11018802	0.0022988627	0.00022744904
0.10821591	0.098905906	0.0020634548	0.00022744617
0.10841285	0.091107234	0.001897053	0.00022744617
0.10860978	0.097793162	0.0020295645	0.00022744009
0.10880671	0.10491659	0.002193307	0.00022744009
0.10900365	0.09495037	0.0019676539	0.00022744904
0.10920059	0.097708605	0.0020268126	0.00022744009
0.10939752	0.10715835	0.0022269883	0.00022744009
0.10959446	0.092872567	0.0019254948	0.00022744009
0.10979139	0.08992181	0.0018694443	0.00022744009
0.10998832	0.094727822	0.0019560019	0.00022744296
0.11018527	0.093574814	0.0019383098	0.00022744009
0.1103822	0.099956915	0.0020699536	0.00022744009
0.11057913	0.10987125	0.0022713097	0.00022743401
0.11077607	0.11876076	0.0024586681	0.00022744009
0.110973	0.10817717	0.0022277874	0.00022743687
0.11116994	0.10987601	0.00226716	0.00022743401
0.11136688	0.12591006	0.0026007504	0.00022743401
0.11156381	0.11484475	0.0023635677	0.00022743401
0.11176074	0.13846155	0.0028576287	0.00022743401
0.11195768	0.14546226	0.0029908579	0.00022744296
0.11215462	0.15177426	0.0031330923	0.00022743401
0.11235155	0.17190152	0.0035370071	0.00022743401
0.11254849	0.19755171	0.0040540239	0.00022743401
0.11274542	0.21549535	0.004429284	0.00022743401
0.11294235	0.25286382	0.005203079	0.00022743687
0.11313929	0.25052899	0.0051488103	0.00022743401
0.11333623	0.25723878	0.0052645686	0.00022743401
0.11353316	0.2706131	0.0055596363	0.00022742792
0.1137301	0.27899161	0.0057140533	0.00022743401
0.11392703	0.28661087	0.0058578658	0.00022743079
0.11412397	0.31835362	0.006519557	0.00022742792
0.1143209	0.320723	0.0065709259	0.00022742792
0.11451784	0.32900795	0.0067265718	0.00022742792
0.11471477	0.36382711	0.0074482323	0.00022742792
0.11491171	0.36992544	0.0075241607	0.00022743079
0.11510865	0.43196994	0.0088199526	0.00022742792
0.11530558	0.46752706	0.0095345909	0.00022742792
0.11550251	0.49435383	0.01010526	0.00022742792
0.11569945	0.57273102	0.011654394	0.00022742792
0.11589638	0.64666945	0.013148813	0.00022743079
0.11609332	0.74328238	0.015107566	0.00022742792
0.11629026	0.91597682	0.018630091	0.00022742792
0.11648719	1.1331129	0.023032418	0.00022742184
0.11668412	1.5260116	0.031000478	0.00022742184
0.11688106	2.1031482	0.042797584	0.00022742471
0.117078	2.9453125	0.059714325	0.00022742184
0.11727493	4.0380678	0.081685014	0.00022742184
0.11747187	5.6856322	0.11501488	0.00022742184
0.1176688	7.696187	0.15581542	0.00022742184
0.11786573	9.8700495	0.20044453	0.00022742471
0.11806267	12.414046	0.25082254	0.00022742184
0.11825961	14.628021	0.29604286	0.00022742184
0.11845654	16.614761	0.33454704	0.00022742184
0.11865348	17.825804	0.3595928	0.00022742184
0.11885041	18.433838	0.37308004	0.00022741863
0.11904735	18.411337	0.37043533	0.00022741576
0.11924428	17.453621	0.35202548	0.00022741576
0.11944122	16.289644	0.32762	0.00022741576
0.11963815	14.751016	0.29727706	0.00022741576
0.11983509	13.255122	0.26567712	0.00022741863
0.12003203	11.812601	0.23738189	0.00022741576
0.12022896	10.607882	0.21381716	0.00022741576
0.12042589	9.0295544	0.18166736	0.00022741576
0.12062283	7.8973947	0.15808776	0.00022741576
0.12081976	6.5952668	0.13207038	0.00022741863
0.1210167	5.4647999	0.10927716	0.00022741576
0.12121364	4.4664783	0.089743316	0.00022740968
0.12141057	3.5836327	0.07158462	0.00022740968
0.1216075	2.8058565	0.056182321	0.00022741576
0.12180444	2.1238058	0.042363461	0.00022741254
0.12200138	1.6173774	0.032280836	0.00022740968
0.12219831	1.2679713	0.025331749	0.00022741576
0.12239525	1.0162376	0.020217722	0.00022741576
0.12259218	0.76028764	0.015191326	0.00022740968
0.12278911	0.6350975	0.012664161	0.00022741254
0.12298606	0.54169977	0.010790485	0.00022740968
0.12318299	0.44615993	0.0088725127	0.00022740968
0.12337992	0.41506472	0.0082166325	0.00022740968
0.12357686	0.38754463	0.0077141472	0.00022740968
0.12377379	0.33109444	0.0065769125	0.00022740646
0.12397073	0.29688117	0.0058945143	0.00022740968
0.12416767	0.27022782	0.005350844	0.00022740359
0.1243646	0.25156739	0.0049753594	0.00022740359
0.12456153	0.22358043	0.004435664	0.00022740359
0.12475847	0.2104232	0.0041611311	0.00022740646
0.12495541	0.18929556	0.0037509059	0.00022739463
0.12515233	0.19429241	0.0038369461	0.00022740323
0.12534928	0.18567535	0.0036591203	0.00022739751
0.12554622	0.15838873	0.0031278823	0.00022739751
0.12574315	0.16906334	0.0033284647	0.00022739751
0.12594008	0.15592028	0.0030780532	0.00022739751
0.12613702	0.15235133	0.0029992228	0.00022740968
0.12633395	0.12436647	0.0024512704	0.00022740968
0.12653089	0.13013168	0.002556745	0.00022739751
0.12672782	0.11476044	0.0022517915	0.00022739751
0.12692475	0.11760125	0.0023167203	0.00022739751
0.12712169	0.13437979	0.0026253499	0.00022740323
0.12731864	0.11936236	0.0023492158	0.00022739751
0.12751557	0.12004617	0.0023505308	0.00022739751
0.1277125	0.11730769	0.0022960957	0.00022739751
0.12790944	0.10814986	0.0021212902	0.00022739751
0.12810637	0.10419069	0.0020388493	0.00022739751
0.1283033	0.098121889	0.0019167664	0.00022739751
0.12850024	0.091222689	0.001781605	0.00022739751
0.12869717	0.092925429	0.0018129851	0.00022738535
0.12889411	0.086822897	0.001697678	0.00022739751
0.12909104	0.082540892	0.0016059193	0.00022740323
0.12928799	0.085122697	0.0016628831	0.00022739751
0.12948492	0.082985982	0.0016114236	0.00022739751
0.12968186	0.075277038	0.0014675099	0.00022738535
0.12987879	0.088347293	0.0017199037	0.00022738535
0.13007572	0.079076804	0.0015338092	0.00022738535
0.13027266	0.078386605	0.0015250364	0.00022738535
0.13046959	0.07294029	0.0014138897	0.00022738535
0.13066652	0.070155479	0.0013621761	0.00022738535
0.13086346	0.073345937	0.0014221239	0.00022739751
0.13106039	0.070517629	0.0013618533	0.00022740323
0.13125734	0.064638786	0.0012566402	0.00022738535
0.13145427	0.062734783	0.001212194	0.00022738535
0.13165121	0.067043312	0.0012967743	0.00022738535
0.13184814	0.057699513	0.0011127252	0.00022738535
0.13204508	0.06264066	0.0012093355	0.00022738535
0.13224201	0.059667673	0.0011555087	0.00022738535
0.13243894	0.075112104	0.0014479343	0.00022738535
0.13263588	0.064828612	0.00124735	0.00022738535
0.13283281	0.060209423	0.0011604953	0.00022738535
0.13302974	0.059131738	0.0011401116	0.00022739106
0.13322669	0.061567165	0.0011854033	0.00022738535
0.13342363	0.057079319	0.0010945516	0.00022738535
0.13362056	0.067211285	0.0012909861	0.00022738535
0.13381749	0.060752887	0.0011690598	0.00022737318
0.13401443	0.058779761	0.0011300826	0.00022737318
0.13421136	0.057884973	0.0011110586	0.00022738535
0.1344083	0.053058218	0.0010146202	0.00022737318
0.13460523	0.058388766	0.0011185985	0.00022737318
0.13480216	0.05873606	0.0011286858	0.00022737318
0.1349991	0.054074075	0.0010365428	0.0002273789
0.13519605	0.060197007	0.001146006	0.00022737318
0.13539298	0.058496851	0.0011217517	0.00022737318
0.13558991	0.060439561	0.0011525564	0.00022737318
0.13578685	0.053656746	0.0010247104	0.00022737318
0.13598378	0.055291101	0.0010542395	0.00022737318
0.13618071	0.054860089	0.0010489902	0.00022737318
0.13637765	0.058586597	0.0011172945	0.00022737318
0.13657458	0.05078553	0.00096711522	0.00022737318
0.13677152	0.052842565	0.001005179	0.00022737318
0.13696845	0.054142442	0.0010284717	0.00022737318
0.13716538	0.05512961	0.0010496698	0.0002273789
0.13736233	0.061105013	0.0011647968	0.00022737318
0.13755926	0.05382948	0.0010195662	0.00022737318
0.1377562	0.052439913	0.00099717663	0.00022737318
0.13795313	0.060595065	0.0011504935	0.00022736102
0.13815007	0.057421453	0.0010875907	0.00022736102
0.138347	0.053299494	0.0010111132	0.00022737318
0.13854393	0.045683455	0.00086274178	0.00022737318
0.13874087	0.052000001	0.00098738237	0.00022736102
0.1389378	0.049097475	0.000929142	0.00022736102
0.13913473	0.051236115	0.00096560753	0.00022736673
0.13933168	0.040977713	0.00077339105	0.00022737318
0.13952862	0.043806106	0.00082637521	0.00022737318
0.13972555	0.05232558	0.00099391688	0.00022736102
0.13992248	0.053813256	0.0010123404	0.00022736102
0.14011942	0.047687344	0.00089938293	0.00022736102
0.14031635	0.043633763	0.00082144706	0.00022737318
0.14051329	0.049232963	0.00092631532	0.00022736102
0.14071022	0.0491568	0.00092745392	0.00022736102
0.14090715	0.049255848	0.00092374586	0.00022736102
0.14110409	0.054623351	0.0010283299	0.00022736673
0.14130104	0.053252324	0.0010031196	0.00022736102
0.14149797	0.061658397	0.0011572406	0.00022736102
0.1416949	0.056757715	0.0010652556	0.00022734885
0.14189184	0.051943462	0.0009729953	0.00022736102
0.14208877	0.039642856	0.0007458083	0.00022736102
0.1422857	0.043956045	0.00082401728	0.00022736102
0.14248264	0.04878905	0.00091045396	0.00022736102
0.14267957	0.051418439	0.00096458313	0.00022736102
0.14287651	0.061511423	0.0011497135	0.00022736102
0.14307344	0.039278131	0.00073547801	0.00022735457
0.14327039	0.041110329	0.0007671598	0.00022736102
0.14346732	0.045390569	0.00084807631	0.00022734885
0.14366426	0.041067041	0.0007658918	0.00022734885
0.14386119	0.052299052	0.00097616919	0.00022736102
0.14405812	0.04518389	0.00084208557	0.00022734885
0.14425506	0.049529124	0.0009216324	0.00022734885
0.14445199	0.048404068	0.00090311345	0.00022734885
0.14464892	0.037908036	0.00070654607	0.00022734885
0.14484586	0.047619049	0.00088450883	0.00022734885
0.14504279	0.050906554	0.00094707141	0.00022735457
0.14523974	0.052868001	0.00097924017	0.00022734885
0.14543667	0.044545773	0.00083091942	0.00022733668
0.14563361	0.055883374	0.0010377235	0.00022734885
0.14583054	0.047271464	0.00087783468	0.00022734885
0.14602748	0.049463853	0.00091656949	0.00022734885
0.14622441	0.051921081	0.00096262374	0.00022733668
0.14642134	0.042156186	0.00078012527	0.00022734885
0.14661828	0.053719006	0.00099316286	0.00022733668
0.14681521	0.050259966	0.0009322993	0.00022733668
0.14701214	0.055191446	0.0010213007	0.0002273424
0.14720909	0.045814674	0.00084692275	0.00022733668
0.14740603	0.047914512	0.00088626647	0.00022733668
0.14760296	0.050408721	0.00092693587	0.00022733668
0.14779989	0.049948331	0.00092377345	0.00022733668
0.14799683	0.041681021	0.00076988939	0.00022733668
0.14819376	0.047733516	0.00088111096	0.00022733668
0.1483907	0.044847656	0.00082657509	0.00022733668
0.14858763	0.046289992	0.00085082045	0.00022733668
0.14878456	0.037100654	0.00068403222	0.00022733668
0.1489815	0.047796611	0.00087658502	0.0002273424
0.14917845	0.052470189	0.0009649609	0.00022733668
0.14937538	0.054570258	0.001004026	0.00022733668
0.14957231	0.048425332	0.00088772119	0.00022733668
0.14976925	0.041780822	0.00076988444	0.00022733668
0.14996618	0.0438153	0.00080113922	0.00022733668
0.15016311	0.048135594	0.00088269805	0.00022732452
0.15036005	0.047262836	0.00086815457	0.00022732452
0.15055698	0.04481132	0.00081934425	0.00022733668
0.15075392	0.04588715	0.00084258348	0.00022733668
0.15095085	0.048305936	0.00088139006	0.00022733024
0.1511478	0.048164364	0.00088042393	0.00022732452
0.15134473	0.047345281	0.00086716138	0.00022733668
0.15154167	0.045957733	0.00083857717	0.00022732452
0.1517386	0.044624746	0.00081718975	0.00022732452
0.15193553	0.041862022	0.00076289324	0.00022732452
0.15213247	0.04436975	0.00081028824	0.00022733668
0.1523294	0.048273548	0.00088063208	0.00022732452
0.15252633	0.043652117	0.00079369411	0.00022732452
0.15272327	0.037805285	0.00068838126	0.00022732452
0.1529202	0.049716383	0.00090471166	0.00022733024
0.15311715	0.043259557	0.000788957	0.00022732452
0.15331408	0.040212695	0.00072991551	0.00022732452
0.15351102	0.043550532	0.00079083187	0.00022732452
0.15370795	0.045257904	0.000822387	0.00022731235
0.15390489	0.042928454	0.0007798209	0.00022732452
0.15410182	0.046311609	0.00083891524	0.00022732452
0.15429875	0.037209302	0.00067496806	0.00022732452
0.15449569	0.046480745	0.00084342877	0.00022731235
0.15469262	0.042025149	0.00076129753	0.00022731235
0.15488955	0.039196312	0.00070818665	0.00022731809
0.1550865	0.037220027	0.00067235011	0.00022732452
0.15528344	0.03777336	0.00068435649	0.00022731235
0.15548037	0.0354422	0.00064178894	0.00022731235
0.1556773	0.039344262	0.00070915651	0.00022731235
0.15587424	0.039868206	0.00072055514	0.00022731235
0.15607117	0.041775458	0.00075145677	0.00022731235
0.1562681	0.041543026	0.00075093046	0.00022731235
0.15646504	0.04040736	0.00072917901	0.00022732452
0.15666197	0.040876389	0.00073596369	0.00022731235
0.15685891	0.034978751	0.00062929612	0.00022731809
0.15705585	0.038499184	0.00069211103	0.00022731235
0.15725279	0.036018338	0.000648466	0.00022731235
0.15744972	0.045838751	0.00082314905	0.00022731235
0.15764666	0.042317707	0.00076023227	0.00022731235
0.15784359	0.039999999	0.00072089193	0.00022731235
0.15804052	0.039883267	0.00071451243	0.00022731235
0.15823746	0.038774844	0.00069659506	0.00022731235
0.15843439	0.036059242	0.00064370758	0.00022731235
0.15863132	0.033722438	0.00060390547	0.00022730019
0.15882826	0.036156353	0.00064923312	0.00022731809
0.15902521	0.037168715	0.00066500652	0.00022730019
0.15922214	0.03628118	0.0006496603	0.00022730019
0.15941907	0.039127644	0.00069748308	0.00022731235
0.15961601	0.044027194	0.00078868022	0.00022730019
0.15981294	0.037669029	0.00067271874	0.00022730019
0.16000988	0.041854475	0.00074782688	0.00022730019
0.16020681	0.038647342	0.00069020229	0.00022730019
0.16040374	0.045848027	0.000817594	0.00022730019
0.16060068	0.049000643	0.00087653945	0.00022730019
0.16079761	0.046889953	0.00083403353	0.00022730592
0.16099456	0.048803829	0.00086798676	0.00022730019
0.16119149	0.045381397	0.00081090024	0.00022730019
0.16138843	0.052446436	0.00093461608	0.00022730019
0.16158536	0.045818649	0.00081672764	0.00022730019
0.16178229	0.043533523	0.00077285332	0.00022728802
0.16197923	0.038927887	0.00069205422	0.00022728802
0.16217616	0.043865226	0.00077864574	0.00022728802
0.1623731	0.042024832	0.00074621121	0.00022728802
0.16257003	0.035544273	0.00062986463	0.00022728802
0.16276696	0.032719187	0.00058002415	0.00022730592
0.16296391	0.033672173	0.000596862	0.00022728802
0.16316085	0.039860804	0.00070533011	0.00022730019
0.16335778	0.040177159	0.00071127707	0.00022728802
0.16355471	0.040025212	0.00070702413	0.00022728802
0.16375165	0.034538411	0.00061728572	0.00022728802
0.16394858	0.040549379	0.00072971062	0.00022728802
0.16414551	0.047992166	0.00086349563	0.00022728802
0.16434245	0.045274291	0.00081914605	0.00022728802
0.16453938	0.040890958	0.00074181461	0.00022728802
0.16473632	0.043768793	0.00079598877	0.00022729376
0.16493326	0.041778974	0.00076295517	0.00022728802
0.1651302	0.037906744	0.00069049862	0.00022727586
0.16532713	0.041039672	0.00075490744	0.00022728802
0.16552407	0.042992551	0.00078699907	0.00022727586
0.165721	0.040677965	0.00074515736	0.00022728802
0.16591793	0.040508069	0.0007466643	0.00022727586
0.16611487	0.042166609	0.00077690464	0.00022727586
0.1663118	0.037847221	0.00070170313	0.00022728802
0.16650873	0.035063595	0.00064645772	0.00022728802
0.16670567	0.037891835	0.00069948554	0.00022728159
0.16690262	0.045849252	0.00085096044	0.00022727586
0.16709955	0.049460117	0.00091924705	0.00022727586
0.16729648	0.044241574	0.00082523073	0.00022727586
0.16749342	0.043871865	0.00081475166	0.00022727586
0.16769035	0.047219306	0.00087915512	0.00022727586
0.16788729	0.042019773	0.00078585389	0.00022727586
0.16808422	0.040681504	0.00075435051	0.00022727586
0.16828115	0.037194476	0.00069580041	0.00022727586
0.16847809	0.043905865	0.00081907643	0.00022726369
0.16867502	0.041905444	0.00078894384	0.00022728159
0.16887197	0.032635685	0.00061077561	0.00022727586
0.1690689	0.040960453	0.00076615968	0.00022726369
0.16926584	0.044065386	0.00082682283	0.00022727586
0.16946277	0.035968661	0.00067505811	0.00022727586
0.1696597	0.038115785	0.00071877759	0.00022726369
0.16985664	0.042037763	0.00078918843	0.00022726369
0.17005357	0.037870668	0.00071204663	0.00022727586
0.17025051	0.038807042	0.00073170476	0.00022726369
0.17044744	0.037647903	0.00070934463	0.00022726369
0.17064437	0.041441441	0.00078274519	0.00022726943
0.17084132	0.037437007	0.00070633268	0.00022727586
0.17103826	0.036794171	0.00069836428	0.00022726369
0.17123519	0.035830621	0.00067797548	0.00022726369
0.17143212	0.040331293	0.00076162332	0.00022726369
0.17162906	0.040535651	0.00076748175	0.00022726369
0.17182599	0.034644533	0.00065445952	0.00022726369
0.17202292	0.035346098	0.00067421969	0.00022726369
0.17221986	0.043557167	0.00082601258	0.00022726369
0.17241679	0.037185565	0.00070561527	0.00022726369
0.17261373	0.041560337	0.00078914757	0.00022725726
0.17281067	0.034583181	0.00065595814	0.00022726369
0.17300761	0.033749081	0.00064245408	0.00022726369
0.17320454	0.039723031	0.00075432565	0.00022725153
0.17340147	0.038774002	0.00074045977	0.00022725153
0.17359841	0.044231478	0.0008447367	0.00022725153
0.17379534	0.036356959	0.00069254177	0.00022726369
0.17399228	0.032636598	0.00062061439	0.00022726369
0.17418921	0.032991201	0.00062753912	0.00022725153
0.17438614	0.031633791	0.00060609583	0.00022725153
0.17458308	0.040929202	0.00078150822	0.00022725726
0.17478003	0.044798221	0.00085744803	0.00022725153
0.17497696	0.041774493	0.00079884456	0.00022725153
0.17517389	0.043717854	0.00083367672	0.00022725153
0.17537083	0.044585988	0.00085838989	0.00022723936
0.17556776	0.038774002	0.00074113981	0.00022723936
0.17576469	0.052160952	0.0010021721	0.00022723936
0.17596163	0.038863976	0.00074738415	0.00022725153
0.17615856	0.046753246	0.00089644565	0.00022725153
0.1763555	0.041310012	0.000792832	0.00022725153
0.17655243	0.047141798	0.00090438663	0.00022724509
0.17674938	0.042449288	0.00081860489	0.00022723936
0.17694631	0.035995502	0.00069265964	0.00022723936
0.17714325	0.049008604	0.00094341999	0.00022725153
0.17734018	0.050694704	0.00097815518	0.00022723936
0.17753711	0.03941986	0.00075557537	0.00022723936
0.17773405	0.04470323	0.0008618398	0.00022723936
0.17793098	0.040754717	0.00078755053	0.00022723936
0.17812791	0.041275796	0.00079506251	0.00022723936
0.17832485	0.042121097	0.0008124283	0.00022723936
0.17852178	0.032743696	0.00063092861	0.00022724509
0.17871873	0.050585125	0.00097841385	0.00022723936
0.17891566	0.039879609	0.00076945714	0.00022723936
0.1791126	0.038911976	0.00075220963	0.00022722721
0.17930953	0.052472632	0.0010149688	0.00022723936
0.17950647	0.057998482	0.0011238009	0.00022723936
0.1797034	0.043856334	0.00084801216	0.00022723936
0.17990033	0.0373444	0.00072109868	0.00022723936
0.18009727	0.039543726	0.00076672179	0.00022722721
0.1802942	0.043544114	0.00084326835	0.00022722721
0.18049113	0.049751244	0.00096895499	0.00022723294
0.18068808	0.041303523	0.00079993194	0.00022722721
0.18088502	0.034861691	0.00067464967	0.00022722721
0.18108195	0.041539636	0.0008063899	0.00022722721
0.18127888	0.045610033	0.00088453956	0.00022722721
0.18147582	0.03778626	0.00073416362	0.00022722721
0.18167275	0.040212441	0.0007794617	0.00022722721
0.18186969	0.036781609	0.00071610539	0.00022722721
0.18206662	0.032592025	0.00063402409	0.00022722721
0.18226355	0.031794094	0.00061400991	0.00022721505
0.18246049	0.042961258	0.00083692715	0.00022723294
0.18265744	0.03360061	0.0006523538	0.00022721505
0.18285437	0.038047656	0.00074187241	0.00022722721
0.1830513	0.036552519	0.00071246619	0.00022722721
0.18324824	0.04152381	0.00080620346	0.00022721505
0.18344517	0.033435818	0.00065104099	0.00022721505
0.1836421	0.040644173	0.00079147983	0.00022721505
0.18383904	0.033076923	0.00064441544	0.00022721505
0.18403597	0.039584935	0.00077210402	0.00022721505
0.18423291	0.037706811	0.0007349847	0.00022721505
0.18442984	0.034482758	0.0006744503	0.00022722078
0.18462679	0.028374232	0.00055133592	0.00022721505
0.18482372	0.038565367	0.00075286045	0.00022721505
0.18502066	0.034204457	0.00066638604	0.00022721505
0.18521759	0.029389018	0.00057331304	0.00022721505
0.18541452	0.036018591	0.00070424873	0.00022721505
0.18561146	0.037408408	0.00073018786	0.00022721505
0.18580839	0.040478025	0.00079017348	0.00022721505
0.18600532	0.040650405	0.00079530006	0.00022720288
0.18620226	0.036088474	0.00070621684	0.00022721505
0.18639919	0.042989932	0.00084141269	0.00022722078
0.18659614	0.034108527	0.00066720322	0.00022720288
0.18679307	0.040951639	0.00080467411	0.00022720288
0.18699001	0.037881717	0.00074026134	0.00022720288
0.18718694	0.043562815	0.00085498247	0.00022720288
0.18738388	0.045314901	0.00088345306	0.00022720288
0.18758081	0.041584935	0.00081919541	0.00022721505
0.18777774	0.034978624	0.00068492617	0.00022720288
0.18797468	0.045950156	0.00090209785	0.00022720288
0.18817161	0.042478565	0.00083395891	0.00022719071
0.18836854	0.035990711	0.0007032663	0.00022720861
0.18856549	0.039732493	0.00078321312	0.00022719071
0.18876243	0.031140521	0.00061007641	0.00022720288
0.18895936	0.034697857	0.00068042323	0.00022720288
0.18915629	0.033997655	0.00066796847	0.00022719071
0.18935323	0.034361579	0.00067455461	0.00022719071
0.18955016	0.034915652	0.00068736804	0.00022720288
0.1897471	0.03420132	0.00066984049	0.00022719071
0.18994403	0.039123632	0.00076958042	0.00022720288
0.19014096	0.035840884	0.00070690643	0.00022719071
0.1903379	0.035811599	0.00070216245	0.00022719646
0.19053484	0.031508468	0.00062092242	0.00022719071
0.19073178	0.027647976	0.00054118445	0.00022719071
0.19092871	0.033438239	0.00065878703	0.00022719071
0.19112565	0.03833992	0.0007577159	0.00022719071
0.19132258	0.041309431	0.00081092084	0.00022719071
0.19151951	0.03977944	0.00078491343	0.00022719071
0.19171645	0.040062845	0.00078970188	0.00022719071
0.19191338	0.038204018	0.00075344677	0.00022717856
0.19211031	0.039607842	0.00077983941	0.00022719071
0.19230725	0.038476638	0.00075793016	0.00022719646
0.1925042	0.034537517	0.00068376091	0.00022719071
0.19270113	0.03383163	0.00066659879	0.00022719071
0.19289806	0.029145332	0.00057385908	0.00022719071
0.193095	0.036036037	0.00070868968	0.00022717856
0.19329193	0.040095277	0.00079412357	0.00022719071
0.19348887	0.039556962	0.00078216573	0.00022717856
0.1936858	0.02674007	0.00052575691	0.00022717856
0.19388273	0.028808208	0.00056824827	0.00022717856
0.19407967	0.03125	0.00061720365	0.00022717856
0.1942766	0.039059386	0.00077505287	0.0002271843
0.19447355	0.037558686	0.00073859695	0.00022717856
0.19467048	0.036068171	0.00071320584	0.00022717856
0.19486742	0.041139241	0.0008133683	0.0002271664
0.19506435	0.030989273	0.00061281561	0.0002271664
0.19526128	0.033107299	0.00065687363	0.0002271664
0.19545822	0.03877791	0.00076286297	0.0002271664
0.19565515	0.033239886	0.00066062959	0.0002271664
0.19585209	0.034523811	0.00068298785	0.0002271664
0.19604902	0.034837689	0.00068880501	0.0002271664
0.19624595	0.034661356	0.00068744231	0.00022717213
0.1964429	0.032702915	0.00064477907	0.00022717856
0.19663984	0.034054488	0.00067708478	0.0002271664
0.19683677	0.039905176	0.00078887295	0.0002271664
0.1970337	0.031549521	0.00062640483	0.0002271664
0.19723064	0.032975763	0.00065286626	0.0002271664
0.19742757	0.040111199	0.00079443894	0.0002271664
0.1976245	0.044560418	0.00088838191	0.00022715423
0.19782144	0.027315915	0.00053884776	0.0002271664
0.19801837	0.041932907	0.00083354337	0.0002271664
0.19821531	0.040287197	0.00079967396	0.00022715998
0.19841225	0.040605094	0.00080586941	0.0002271664
0.19860919	0.035628501	0.00070852827	0.00022715423
0.19880612	0.043202538	0.00085573638	0.00022715423
0.19900306	0.04141536	0.00082612201	0.00022715423
0.19919999	0.042281613	0.00084047474	0.00022715423
0.19939692	0.03625498	0.00071928249	0.00022715423
0.19959386	0.035887096	0.00071616558	0.0002271664
0.19979079	0.03941083	0.00078210258	0.00022715423
0.19998772	0.031262524	0.00062125101	0.00022715423
0.20018466	0.027910685	0.00055263523	0.00022715998
0.20038161	0.025733816	0.00051144004	0.00022715423
0.20057854	0.028811524	0.00057199586	0.00022715423
0.20077547	0.036356371	0.00072159542	0.00022715423
0.20097241	0.034635521	0.00069031247	0.00022715423
0.20116934	0.050718851	0.0010087597	0.00022715423
0.20136628	0.038631789	0.00077056506	0.00022714208
0.20156321	0.038831066	0.00077232416	0.00022715423
0.20176014	0.033454251	0.00066712953	0.00022714208
0.20195708	0.041232988	0.00082043582	0.00022715423
0.20215401	0.037304454	0.00074282271	0.00022715998
0.20235096	0.039468385	0.00078742596	0.00022714208
0.20254789	0.037615046	0.00074781704	0.00022714208
0.20274483	0.038133875	0.00076316943	0.00022714208
0.20294176	0.028811524	0.00057165953	0.00022714208
0.20313869	0.032336298	0.00064586318	0.00022714208
0.20333563	0.035151515	0.00070207781	0.00022714208
0.20353256	0.03146157	0.0006236856	0.00022712992
0.2037295	0.04102356	0.00082202768	0.00022712992
0.20392643	0.046455748	0.0009250092	0.00022714208
0.20412336	0.040990259	0.00082070101	0.00022714782
0.20432031	0.041515518	0.00082896295	0.00022714208
0.20451725	0.045709703	0.00091053231	0.00022714208
0.20471418	0.050365556	0.001010297	0.00022712992
0.20491111	0.049580168	0.00098688435	0.00022714208
0.20510805	0.051198699	0.001027116	0.00022712992
0.20530498	0.058966074	0.0011802476	0.00022712992
0.20550191	0.054596547	0.0010893194	0.00022712992
0.20569885	0.06612245	0.0013305868	0.00022712992
0.20589578	0.066960707	0.0013356722	0.00022712992
0.20609272	0.059063137	0.0011873672	0.00022713565
0.20628966	0.069729947	0.0013950788	0.00022712992
0.2064866	0.069371194	0.0013923274	0.00022711777
0.20668353	0.073983736	0.0014864994	0.00022712992
0.20688047	0.05882353	0.0011760257	0.00022712992
0.2070774	0.061588332	0.0012349762	0.00022711777
0.20727433	0.055175193	0.0011024413	0.00022711777
0.20747127	0.062729128	0.0012608285	0.00022711777
0.2076682	0.061738424	0.0012394942	0.00022712992
0.20786513	0.054567501	0.0010923735	0.00022712992
0.20806207	0.045195438	0.00090684672	0.0002271235
0.20825902	0.055308841	0.001106331	0.00022711777
0.20845595	0.053789731	0.0010808661	0.00022711777
0.20865288	0.045656566	0.00091297948	0.00022711777
0.20884982	0.037566353	0.0007540441	0.00022711777
0.20904675	0.03213995	0.00064396881	0.00022711777
0.20924369	0.034888439	0.00069807994	0.0002271056
0.20944062	0.02835156	0.00056613493	0.00022711777
0.20963755	0.038508311	0.00077067385	0.00022711777
0.20983449	0.038240131	0.00077076809	0.00022711777
0.21003142	0.042613637	0.00085369061	0.00022711133
0.21022837	0.045602605	0.00091559149	0.00022711777
0.2104253	0.037489813	0.0007520105	0.00022711777
0.21062224	0.031842001	0.00063451758	0.0002271056
0.21081917	0.03131438	0.00063079502	0.0002271056
0.2110161	0.042914979	0.0008588148	0.0002271056
0.21121304	0.036237784	0.00072650425	0.0002271056
0.21140997	0.028536486	0.00057144655	0.0002271056
0.2116069	0.029820262	0.00059834443	0.0002271056
0.21180384	0.038067948	0.00076574669	0.0002271056
0.21200077	0.02989899	0.0005967067	0.00022711133
0.21219772	0.035802469	0.00072176929	0.00022709343
0.21239465	0.032046016	0.0006451846	0.0002271056
0.21259159	0.034524776	0.00069135468	0.0002271056
0.21278852	0.033469386	0.00067208405	0.0002271056
0.21298546	0.039772727	0.00079638464	0.00022709343
0.21318239	0.027640264	0.00055693591	0.00022709343
0.21337932	0.030438311	0.00060867012	0.00022709343
0.21357626	0.028197793	0.00056515547	0.0002271056
0.21377319	0.028889807	0.00058233534	0.0002271056
0.21397012	0.028897028	0.00057792437	0.00022709918
0.21416707	0.03351042	0.00067281327	0.00022709343
0.21436401	0.029759478	0.00059617474	0.00022709343
0.21456094	0.027526705	0.00055300514	0.00022709343
0.21475787	0.031609196	0.00063508668	0.00022708128
0.21495481	0.032284431	0.00064705155	0.00022709343
0.21515174	0.032363784	0.00065049727	0.00022709343
0.21534868	0.038886614	0.00078205985	0.00022708128
0.21554561	0.024289832	0.00048746439	0.00022709343
0.21574254	0.036356211	0.00073016237	0.00022708128
0.21593948	0.039094649	0.00078807957	0.00022709918
0.21613643	0.05500821	0.0011092123	0.00022708128
0.21633336	0.03813038	0.00076673273	0.00022708128
0.21653029	0.064092033	0.0012210875	0.00022708128
0.21672723	0.037127703	0.00074413622	0.00022709343
0.21692416	0.037525773	0.0007565085	0.00022708128
0.21712109	0.038603697	0.0007771402	0.00022708128
0.21731803	0.03655031	0.00073526468	0.00022708128
0.21751496	0.044874433	0.00090466137	0.00022708128
0.2177119	0.038289204	0.00076783774	0.00022708128
0.21790883	0.034482758	0.0006979286	0.00022708702
0.21810578	0.035130721	0.00070517178	0.00022708128
0.21830271	0.031404957	0.00063342287	0.00022708128
0.21849965	0.034156378	0.00068824447	0.00022706912
0.21869658	0.034369886	0.00069082249	0.00022708128
0.21889351	0.03606965	0.00072947418	0.00022706912
0.21909045	0.027447768	0.00055062777	0.00022706912
0.21928738	0.036731325	0.00074130378	0.00022706912
0.21948431	0.028052805	0.00056432775	0.00022706912
0.21968125	0.03164817	0.00063691655	0.00022706912
0.21987818	0.027651671	0.00055702828	0.00022707487
0.22007513	0.038067948	0.00076556747	0.00022706912
0.22027206	0.036914144	0.00074684585	0.00022706912
0.220469	0.034482758	0.0006928317	0.00022706912
0.22066593	0.031870861	0.00064376189	0.00022705697
0.22086287	0.034993824	0.00070549332	0.00022705697
0.2210598	0.038318913	0.00077315152	0.00022705697
0.22125673	0.039304923	0.00079462543	0.00022705697
0.22145367	0.035537191	0.00071754574	0.00022705697
0.2216506	0.038842976	0.0007843778	0.00022706912
0.22184753	0.029218107	0.00058794033	0.00022707487
0.22204448	0.0373444	0.00075586914	0.00022705697
0.22224142	0.030115511	0.00060725393	0.00022705697
0.22243835	0.032577321	0.00065705343	0.00022705697
0.22263528	0.037728027	0.0007634745	0.00022705697
0.22283222	0.029194079	0.00058757031	0.00022704482
0.22302915	0.030391341	0.00061526505	0.00022705697
0.22322609	0.042131349	0.00085165363	0.00022704482
0.22342302	0.041512538	0.00083726842	0.00022704482
0.22361995	0.039020341	0.00079066271	0.00022705697
0.22381689	0.040875308	0.00082567852	0.0002270627
0.22401384	0.032567851	0.00066045893	0.00022704482
0.22421077	0.0345679	0.00069610117	0.00022704482
0.2244077	0.041821945	0.0008457246	0.00022704482
0.22460464	0.036204744	0.00073328183	0.00022704482
0.22480157	0.032443531	0.00065290334	0.00022704482
0.2249985	0.031446543	0.00063916558	0.00022704482
0.22519544	0.02909836	0.00058468257	0.00022704482
0.22539237	0.032016631	0.00064829516	0.00022704482
0.22558931	0.033040568	0.00067112007	0.00022704482
0.22578624	0.032284431	0.00064842188	0.00022703838
0.22598319	0.042482298	0.00086206698	0.00022703265
0.22618012	0.030591153	0.00061766419	0.00022704482
0.22637706	0.030556718	0.00062017632	0.00022704482
0.22657399	0.038126811	0.00077098381	0.00022703265
0.22677092	0.042703152	0.00086421508	0.00022703265
0.22696786	0.049336649	0.00099905208	0.00022703265
0.22716479	0.03436853	0.00069364428	0.00022704482
0.22736172	0.028858218	0.00058512896	0.00022703265
0.22755866	0.036363635	0.00073446351	0.00022703265
0.22775559	0.033848725	0.00068705983	0.00022703265
0.22795253	0.028606964	0.00057787314	0.00022703838
0.22814947	0.024501661	0.00049458077	0.00022703265
0.22834641	0.033582091	0.00067906146	0.00022703265
0.22854334	0.033236396	0.00067238079	0.0002270205
0.22874027	0.027742749	0.00056445203	0.00022703265
0.22893721	0.035080478	0.00070811575	0.00022703265
0.22913414	0.028702162	0.00058076053	0.0002270205
0.22933108	0.034053154	0.00068912294	0.0002270205
0.22952801	0.033347227	0.00067628332	0.0002270205
0.22972494	0.029571012	0.00059838436	0.0002270205
0.22992188	0.03150912	0.00063713698	0.00022703838
0.23011883	0.025781911	0.0005252125	0.0002270205
0.23031576	0.027663087	0.00055724703	0.0002270205
0.23051269	0.035372451	0.00071657344	0.0002270205
0.23070963	0.030416667	0.0006161519	0.0002270205
0.23090656	0.031923715	0.00064470101	0.00022700834
0.23110349	0.029362416	0.00059680903	0.00022700834
0.23130043	0.03420943	0.0006939774	0.0002270205
0.23149736	0.028286189	0.00057264458	0.0002270205
0.2316943	0.028404344	0.0005756038	0.0002270205
0.23189123	0.03445413	0.0006975726	0.00022701408
0.23208818	0.03394803	0.00069019268	0.00022700834
0.23228511	0.027477102	0.00055636308	0.00022700834
0.23248205	0.035938151	0.00072972564	0.00022700834
0.23267898	0.039798912	0.00080983661	0.00022700834
0.23287591	0.038237739	0.00077472231	0.00022700834
0.23307285	0.034295272	0.00069659163	0.00022700834
0.23326978	0.023352794	0.00047255363	0.00022700834
0.23346671	0.032136895	0.0006518403	0.00022700834
0.23366365	0.033221193	0.00067652168	0.00022700834
0.23386058	0.030884808	0.00062646443	0.00022701408
0.23405753	0.035920728	0.00072534883	0.00022699618
0.23425446	0.029869584	0.00060783885	0.00022700834
0.2344514	0.030620806	0.00062189129	0.00022699618
0.23464833	0.032595068	0.0006611768	0.00022699618
0.23484527	0.035117056	0.00071357691	0.00022700834
0.2350422	0.028846154	0.00058513688	0.00022700834
0.23523913	0.028139437	0.00057170429	0.00022699618
0.23543607	0.029142382	0.00058950018	0.00022699618
0.235633	0.028010033	0.00056827936	0.00022699618
0.23582993	0.034352746	0.0006982382	0.00022700192
0.23602688	0.029473685	0.00059970719	0.00022698403
0.23622382	0.038349312	0.00077746395	0.00022699618
0.23642075	0.030884808	0.000626116	0.00022699618
0.23661768	0.031852473	0.00064735353	0.00022698403
0.23681462	0.03409091	0.00069466257	0.00022698403
0.23701155	0.025491016	0.00051648886	0.00022699618
0.23720849	0.035923142	0.00072966819	0.00022698403
0.23740542	0.036104113	0.00073508907	0.00022699618
0.23760235	0.029350106	0.00059606263	0.00022698403
0.23779929	0.03443931	0.00070066797	0.00022698977
0.23799624	0.032971621	0.00066891138	0.00022698403
0.23819317	0.04119378	0.00083971658	0.00022698403
0.2383901	0.026448363	0.00053729257	0.00022698403
0.23858704	0.032258064	0.00065564306	0.00022698403
0.23878397	0.03394803	0.00069029944	0.00022698403
0.2389809	0.031040268	0.00063073297	0.00022697187
0.23917784	0.030264817	0.00061521807	0.00022697187
0.23937477	0.040438078	0.00082497124	0.00022698403
0.23957171	0.047319934	0.00096363598	0.00022697187
0.23976864	0.038365304	0.00077869603	0.00022697762
0.23996559	0.03536842	0.00072125322	0.00022697187
0.24016252	0.035109982	0.00071737682	0.00022697187
0.24035946	0.048146568	0.00098845246	0.00022697187
0.24055639	0.039306846	0.00080334168	0.00022697187
0.24075332	0.042163543	0.00086555938	0.00022697187
0.24095026	0.025311025	0.00051944394	0.00022697187
0.24114719	0.030638298	0.0006273805	0.00022697187
0.24134412	0.031263385	0.00064206182	0.00022697187
0.24154106	0.030198447	0.00062209531	0.00022697187
0.24173799	0.034527406	0.00071227964	0.00022696547
0.24193494	0.026475694	0.0005465576	0.00022697187
0.24213187	0.031841651	0.00065592729	0.00022695972
0.24232881	0.033231307	0.00068923907	0.00022697187
0.24252574	0.03148229	0.00065284554	0.00022695972
0.24272268	0.030567685	0.00063340995	0.00022695972
0.24291961	0.030383091	0.00063266105	0.00022695972
0.24311654	0.033072237	0.00068501791	0.00022695972
0.24331348	0.032874279	0.00068796956	0.00022695972
0.24351041	0.026455026	0.0005509762	0.00022695972
0.24370734	0.033450704	0.00069668947	0.00022696547
0.24390429	0.03202847	0.00066977914	0.00022695972
0.24410123	0.034883723	0.00073227694	0.00022695972
0.24429816	0.029307282	0.00061244512	0.00022694757
0.24449509	0.028780265	0.00060990598	0.00022694757
0.24469203	0.031797234	0.00067720306	0.00022695972
0.24488896	0.034208059	0.00073419255	0.00022694757
0.2450859	0.035731077	0.00076873723	0.00022694757
0.24528283	0.03644108	0.00078575948	0.00022694757
0.24547976	0.045779686	0.00099352526	0.00022694757
0.2456767	0.03657363	0.00079721166	0.0002269533
0.24587364	0.028860029	0.00062762707	0.00022694757
0.24607058	0.029140359	0.00063625519	0.0002269354
0.24626751	0.036337208	0.00079381105	0.00022694757
0.24646445	0.035450518	0.00078102964	0.00022694757
0.24666138	0.028992629	0.00063645048	0.00022694757
0.24685831	0.036013812	0.00079355139	0.0002269354
0.24705525	0.035270739	0.00077950739	0.0002269354
0.24725218	0.036944583	0.00081872777	0.0002269354
0.24744911	0.032176975	0.00071511854	0.00022694757
0.24764605	0.038480759	0.00085368089	0.00022694115
0.247843	0.029204432	0.00064883474	0.0002269354
0.24803993	0.031186095	0.00069894345	0.0002269354
0.24823686	0.02614044	0.00058521196	0.0002269354
0.2484338	0.026985744	0.00060308748	0.00022692325
0.24863073	0.025205761	0.00056571962	0.0002269354
0.24882767	0.037037037	0.00083405135	0.00022692325
0.2490246	0.031039834	0.0006984885	0.00022692325
0.24922153	0.041797284	0.00094798597	0.00022692325
0.24941847	0.041515309	0.00093840749	0.00022692325
0.2496154	0.02530311	0.00057348883	0.000226929
0.24981235	0.026927138	0.00061231363	0.00022692965
0.25000927	0.031331591	0.00070976792	0.00022692325
0.2502062	0.034666665	0.00079270959	0.0002269354
0.25040314	0.028072033	0.00063917594	0.0002269111
0.25060007	0.03407247	0.00078527466	0.0002269226
0.25079703	0.033653848	0.00077124004	0.0002269111
0.25099397	0.029016657	0.00066608289	0.0002269111
0.2511909	0.026044494	0.00059861509	0.0002269111
0.25138783	0.022617124	0.00051688886	0.0002269111
0.25158477	0.027792916	0.00064183411	0.0002269111
0.2517817	0.030567685	0.00070703513	0.0002269111
0.25197864	0.026301369	0.00060857763	0.0002269111
0.25217557	0.023822716	0.0005537094	0.0002269111
0.2523725	0.020856202	0.00048226898	0.0002269111
0.25256944	0.033351861	0.0007790841	0.0002269111
0.25276637	0.032759577	0.00076468365	0.0002269111
0.2529633	0.02680067	0.00062627072	0.0002268868
0.25316024	0.029842343	0.00070084858	0.0002269111
0.25335717	0.027288232	0.00064286962	0.0002269111
0.25355411	0.029876977	0.00071537786	0.0002269111
0.25375104	0.026474128	0.00064114312	0.0002269111
0.25394797	0.024154589	0.00058514863	0.0002268868
0.25414491	0.03071253	0.0007525314	0.0002269111
0.25434184	0.028462999	0.00070627319	0.0002269111
0.25453877	0.02734375	0.00068875722	0.0002269226
0.25473574	0.017461384	0.00044250698	0.0002268868
0.25493267	0.02520436	0.00064861163	0.0002269111
0.25512961	0.028511822	0.00074200082	0.0002269111
0.25532654	0.019162526	0.00050042238	0.0002269111
0.25552347	0.027676621	0.0007367768	0.0002268868
0.25572041	0.029545454	0.00080193812	0.0002269111
0.25591734	0.03160454	0.00088843855	0.0002269111
0.25611427	0.023215821	0.00066641526	0.0002268868
0.25631121	0.036529679	0.0010891358	0.0002268868
0.25650814	0.034872763	0.0010549471	0.0002268868
0.25670508	0.029041626	0.00088576134	0.0002268868
0.25690201	0.022198731	0.00070472166	0.0002268868
0.25709894	0.019079685	0.00061587803	0.0002268868
0.25729588	0.027154664	0.00090945925	0.0002268868
0.25749281	0.022781774	0.00076378265	0.0002268868
0.25768974	0.021383647	0.00072255894	0.0002268868
0.25788668	0.023285899	0.00080912444	0.0002268868
0.25808361	0.036048066	0.0012841638	0.0002268868
0.25828055	0.042407662	0.0015357309	0.0002268868
0.25847748	0.034334764	0.0012676093	0.00022689829
0.25867444	0.03930131	0.0014619558	0.00022686248
0.25887138	0.025993884	0.00098684768	0.00022686248
0.25906831	0.029320987	0.001121982	0.00022686248
0.25926524	0.025356578	0.00097815122	0.0002268868
0.25946218	0.033444814	0.0013306307	0.00022686248
0.25965911	0.044142615	0.0017629528	0.0002268868
0.25985605	0.039861351	0.0016114899	0.0002268868
0.26005298	0.026041666	0.0010441798	0.00022686248
0.26024991	0.06818182	0.0027974325	0.00022686248
0.26044685	0.085714288	0.0035554203	0.0002268868
0.26064378	0.04812834	0.0019786442	0.00022686248
0.26084071	0.06115108	0.0025481284	0.00022686248
0.26103765	0.036832411	0.0015420283	0.00022686248
0.26123458	0.033333335	0.0013815686	0.00022686248
0.26143152	0.018867925	0.00077824714	0.0002268868
0.26162845	0.029574862	0.0012271407	0.00022686248
0.26182538	0.022944551	0.00096150168	0.00022686248
0.26202232	0.031311154	0.0013312205	0.00022686248
0.26221925	0.035714287	0.0015424896	0.00022686248
0.26241618	0.028680688	0.0012069651	0.00022684968
0.26261315	0.023809524	0.0010008994	0.00022683818
0.26281008	0.036585364	0.001604556	0.00022686248
0.26300701	0.014373717	0.00060363935	0.00022686248
0.26320395	0.022132797	0.00094754342	0.00022683818
0.26340088	0.023255814	0.0010206203	0.00022686248
0.26359782	0.023012552	0.00099546218	0.00022683818
0.26379475	0.025641026	0.0011360113	0.00022686248
0.26399168	0.03846154	0.0017296427	0.00022683818
0.26418862	0.015217391	0.00065759796	0.00022683818
0.26438555	0.035794184	0.0016273502	0.00022683818
0.26458248	0.027459955	0.001259106	0.00022683818
0.26477942	0.031390134	0.0014339065	0.00022683818
0.26497635	0.051282052	0.0024113129	0.00022686248
0.26517329	0.018648019	0.0008431694	0.00022683818
0.26537022	0.044009779	0.0021104903	0.00022683818
0.26556715	0.021634616	0.0010012647	0.00022683818
0.26576409	0.01980198	0.00092269917	0.00022683818
0.26596102	0.022727273	0.0010781334	0.00022683818
0.26615795	0.028497409	0.0013847733	0.00022683818
0.26635489	0.015345269	0.00070933526	0.00022684968
0.26655185	0.021220159	0.001023667	0.00022681388
0.26674879	0.010958904	0.00049744733	0.00022683818
0.26694572	0.032432433	0.0016164863	0.00022683818
0.26714265	0.019178081	0.00093063869	0.00022681388
0.26733959	0.016949153	0.00082351215	0.00022681388
0.26753652	0.04857143	0.0025223403	0.00022681388
0.26773345	0.036253776	0.0018962112	0.00022683818
0.26793039	0.020895522	0.0010585383	0.00022683818
0.26812732	0.020710059	0.0010444629	0.00022683818
0.26832426	0.0093750004	0.00042857844	0.00022683818
0.26852119	0.0095238099	0.00043883399	0.00022683818
0.26871812	0.019292604	0.001000275	0.00022683818
0.26891506	0.012861736	0.00063262944	0.00022681388
0.26911199	0.016835017	0.0008752108	0.00022683818
0.26930892	0.030201342	0.0016522347	0.00022683818
0.26950586	0.038062282	0.0021384656	0.00022683818
0.26970279	0.0068728523	0.00028537968	0.00022681388
0.26989973	0.014492754	0.00075685937	0.00022681388
0.27009666	0.018726591	0.0010269822	0.00022681388
0.27029359	0.015267176	0.00081840652	0.00022684968
0.27049056	0.0073260074	0.00031409998	0.00022681388
0.27068749	0.0038910506	0	0.00022681388
0.27088442	0.0080321282	0.00036065321	0.00022681388
0.27108136	0.020920502	0.0012129102	0.00022681388
0.27127829	0.029411765	0.0017687788	0.00022681388
0.27147523	0.021276595	0.0014682246	0.00022681388
0.27167216	0.011363637	0	0.00022681388
0.27186909	0	0	0.00022681388
0.27206603	0	0	0.00022681388
0.27226296	0	0	0.00022681388
