#   DataFileName=PAL30_45C_WAXS_08172017.tif
#   DataFileType=.tif
#   
#   DataFilePath=E:DATA:PAL30_08262017:
#   
#   Processed on=Wed, Jan 16, 2019,2:41:02 AM
#   Units=Arbitrary
#   SampleThickness=1
#   SampleTransmission=1
#   CorrectionFactor=1
#   SampleMeasurementTime=1
#   EmptyMeasurementTime=1
#   BackgroundMeasTime=1
#   SampleI0=1
#   EmptyI0=1
#   Nika_SampleToDetectorDistacne=1552.1
#   Nika_Wavelength=1.54
#   Nika_XrayEnergy=8.0509
#   Nika_PixelSizeX=0.075
#   Nika_PixelSizeY=0.075
#   Nika_HorizontalTilt=0
#   Nika_VerticalTilt=0
#   Nika_BeamCenterX=1540.3
#   Nika_BeamCenterY=830.17
#   Nika_BeamSizeX=0
#   Nika_BeamCenterY=830.17
#   CalibrationFormula=1*((Sa2D))
#   CurrentMaskFileName=PAL30_30C_WAXS_mask.hdf
#   QvectorMaxNumPnts=1
#   QvectorNumberPoints=1383
#   CircularAverage=1
#   PolarizationCorrection=None
#   UncertainityCalculationMethod=OldNikaMethod

0.0060065244	12.5	8.8317604	0.00022756745
0.00620346	10.36	2.0599678	0.00022756765
0.0064003952	8.8421049	1.1673167	0.00022756765
0.0065973303	7.8375001	0.87493896	0.00022756765
0.0067942655	10.612245	1.0686865	0.00022756765
0.0069912006	12.35514	1.1818615	0.00022756745
0.0071881362	15.278688	1.3604639	0.00022756727
0.0073850714	17.396946	1.4915441	0.00022756727
0.0075820065	17.144827	1.4049826	0.00022756727
0.0077789417	16.891157	1.3755958	0.00022756745
0.0079758773	15.316456	1.2048277	0.00022756746
0.0081728119	13.656442	1.058195	0.00022756707
0.0083697475	11.865169	0.8811174	0.00022756671
0.0085666822	10.150259	0.72380203	0.00022756783
0.0087636178	9.0102568	0.63923001	0.00022756783
0.0089605534	8.3507109	0.56951404	0.00022756746
0.0091574881	7.6200871	0.49948829	0.00022756707
0.0093544237	6.8920002	0.43239102	0.00022756671
0.0095513584	6.0646386	0.37142494	0.00022756707
0.009748294	5.8272057	0.35103461	0.00022756707
0.0099452296	5.3826714	0.32097688	0.00022756595
0.010142164	4.8093524	0.28675687	0.00022756707
0.0103391	4.4579124	0.25717667	0.00022756671
0.010536035	3.9661016	0.22951135	0.00022756707
0.01073297	4.0592103	0.23170516	0.00022756783
0.010929906	3.5016077	0.19741873	0.00022756746
0.01112684	3.4888179	0.1959843	0.00022756783
0.011323776	3.0873494	0.16861066	0.00022756746
0.011520711	2.9024391	0.15950899	0.00022756707
0.011717646	2.7218935	0.14722058	0.00022756707
0.011914582	2.5321639	0.13624553	0.00022756746
0.012111517	2.3333333	0.12507175	0.00022756783
0.012308452	2.2967033	0.11981732	0.00022756671
0.012505387	2.1525424	0.11389186	0.00022756783
0.012702323	1.925926	0.098573506	0.00022756783
0.012899258	1.8552278	0.095651262	0.00022756671
0.013096193	1.9764398	0.10071453	0.00022756707
0.013293128	1.6445013	0.082781792	0.00022756671
0.013490063	1.5360825	0.077741772	0.00022756707
0.013686999	1.5171568	0.074706145	0.00022756707
0.013883934	1.3990268	0.068726845	0.00022756671
0.014080869	1.4736842	0.07180284	0.00022756707
0.014277805	1.3717647	0.066276565	0.00022756671
0.014474739	1.3262411	0.064266287	0.0002275663
0.014671675	1.2212189	0.057817217	0.00022756707
0.014868611	1.2454545	0.059185017	0.00022756671
0.015065545	1.0945055	0.051140174	0.0002275663
0.015262481	1.0300429	0.04753058	0.00022756671
0.015459416	1.0747253	0.050244179	0.00022756595
0.01565635	0.9573561	0.04405304	0.00022756707
0.015853286	0.955414	0.043893985	0.00022756554
0.016050221	0.89278352	0.04040939	0.00022756707
0.016247157	0.84615386	0.037894722	0.00022756707
0.016444093	0.80000001	0.035673425	0.00022756483
0.016641026	0.8453815	0.037779611	0.00022756707
0.016837962	0.78957915	0.035237547	0.00022756707
0.017034898	0.81712061	0.035925098	0.00022756554
0.017231833	0.76481837	0.033359289	0.00022756554
0.017428769	0.68690699	0.029838368	0.00022756483
0.017625703	0.68224299	0.029423984	0.00022756554
0.017822638	0.69459963	0.029895093	0.00022756554
0.018019574	0.62316179	0.026643932	0.00022756554
0.018216509	0.58759123	0.025042282	0.00022756554
0.018413445	0.62969589	0.026571171	0.00022756483
0.018610379	0.59187281	0.024809917	0.00022756554
0.018807314	0.49912739	0.020790065	0.00022756554
0.01900425	0.57885617	0.024031283	0.00022756554
0.019201186	0.50874126	0.021227337	0.00022756554
0.019398121	0.49916247	0.020390235	0.00022756483
0.019595055	0.5	0.020537291	0.00022756554
0.019791991	0.45950413	0.018623024	0.00022756554
0.019988926	0.54710746	0.022188524	0.00022756554
0.020185862	0.46895424	0.01890506	0.00022756554
0.020382797	0.42038217	0.016738752	0.00022756483
0.020579731	0.45792881	0.018367603	0.00022756403
0.020776667	0.45611286	0.018014029	0.00022756403
0.020973602	0.41940531	0.016552782	0.00022756554
0.021170538	0.41874999	0.016506344	0.00022756403
0.021367474	0.39668176	0.01537093	0.0002275633
0.021564407	0.36996904	0.014509381	0.00022756403
0.021761343	0.38415545	0.014818233	0.00022756403
0.021958278	0.37254903	0.01442186	0.00022756403
0.022155214	0.36417034	0.013922541	0.00022756403
0.02235215	0.38226745	0.014535731	0.0002275633
0.022549083	0.38913363	0.014872253	0.00022756403
0.022746019	0.33900708	0.012733006	0.00022756403
0.022942955	0.37876615	0.014309635	0.00022756403
0.02313989	0.40028289	0.015019538	0.00022756403
0.023336826	0.32775453	0.012211999	0.0002275633
0.02353376	0.33052039	0.012361121	0.00022756403
0.023730695	0.32564449	0.011966892	0.00022756403
0.023927631	0.31586206	0.01170204	0.0002275625
0.024124566	0.30965146	0.011309724	0.00022756403
0.024321502	0.27479893	0.010030051	0.00022756179
0.024518436	0.31946307	0.011677089	0.0002275625
0.024715371	0.27931488	0.010109219	0.0002275625
0.024912307	0.25495377	0.0092407847	0.0002275625
0.025109243	0.2723785	0.0097138686	0.0002275625
0.025306178	0.30401036	0.010908534	0.00022756179
0.025503112	0.2605364	0.0092867147	0.0002275625
0.025700048	0.24523507	0.0087179597	0.0002275625
0.025896983	0.26335877	0.0093703466	0.0002275625
0.026093919	0.23645321	0.008274341	0.00022756097
0.026290854	0.24565756	0.0086306408	0.00022756179
0.026487788	0.24756098	0.008623464	0.0002275625
0.026684724	0.27506113	0.0095958542	0.00022756097
0.026881659	0.24482338	0.0085221548	0.0002275625
0.027078595	0.26730311	0.0092122387	0.00022756097
0.027275531	0.25150421	0.0087011121	0.00022756179
0.027472464	0.2467986	0.0083990907	0.00022756097
0.0276694	0.21513002	0.0073738382	0.00022756097
0.027866336	0.20185615	0.0068539716	0.00022756097
0.028063271	0.2116279	0.0071937884	0.00022756097
0.028260207	0.22144522	0.0075367149	0.00022756026
0.028457141	0.21324354	0.0071245367	0.00022756097
0.028654076	0.20885357	0.0070146187	0.00022756097
0.028851012	0.20357941	0.0067894519	0.00022756097
0.029047947	0.21164614	0.0070616952	0.00022756097
0.029244883	0.23622048	0.0079025561	0.00022756026
0.029441817	0.21895425	0.0072080106	0.00022756097
0.029638752	0.18131869	0.0059928279	0.00022755946
0.029835688	0.20927724	0.0068558636	0.00022756097
0.030032624	0.21182796	0.0069264406	0.00022755946
0.030229559	0.20779221	0.0068172636	0.00022755875
0.030426493	0.22021277	0.0071654613	0.00022755946
0.030623429	0.18743344	0.0060987421	0.00022755946
0.030820364	0.19504644	0.0062496075	0.00022755946
0.0310173	0.17981073	0.0058135451	0.00022755946
0.031214235	0.19190872	0.0061648982	0.00022755946
0.031411171	0.19815195	0.0063329027	0.00022755875
0.031608105	0.18304034	0.0058697378	0.00022755571
0.031805038	0.1809909	0.0057371133	0.00022756017
0.032001976	0.20121334	0.0063819406	0.00022755875
0.03219891	0.17788945	0.0056240009	0.00022756017
0.032395847	0.17682318	0.0055727782	0.00022755875
0.032592781	0.1817279	0.0057097832	0.00022755875
0.032789715	0.18688846	0.0058306125	0.00022756017
0.032986652	0.18817735	0.0058915406	0.00022755571
0.033183586	0.18597858	0.0057863146	0.00022755713
0.033380523	0.17148362	0.0053071533	0.00022755875
0.033577457	0.15703276	0.0048594102	0.00022755571
0.033774391	0.16968541	0.0052250302	0.00022755713
0.033971328	0.16698474	0.0051441826	0.00022755571
0.034168262	0.17123936	0.0052514002	0.00022756017
0.0343652	0.19132893	0.0058594123	0.00022755571
0.034562133	0.16341689	0.0049652588	0.00022755571
0.034759067	0.15306123	0.0046481136	0.00022756017
0.034956004	0.17037037	0.0051700352	0.00022755571
0.035152938	0.17442922	0.0052564829	0.00022755713
0.035349876	0.15693431	0.0047269631	0.00022755571
0.035546809	0.16061705	0.0048247236	0.00022755571
0.035743743	0.16213769	0.0048651169	0.00022755713
0.035940681	0.15067264	0.0044994149	0.00022755571
0.036137614	0.13765542	0.0040882593	0.00022755713
0.036334552	0.15275311	0.0045380248	0.00022755266
0.036531486	0.16225749	0.0048050727	0.00022755266
0.036728419	0.15167548	0.0044897688	0.00022755713
0.036925357	0.17043479	0.005011647	0.00022755571
0.037122291	0.15725456	0.0046216585	0.00022755713
0.037319228	0.15164645	0.0044521862	0.00022755571
0.037516162	0.16284987	0.00473007	0.00022755266
0.037713096	0.14395887	0.0042021242	0.00022755713
0.037910033	0.15758093	0.0045872252	0.00022755266
0.038106967	0.13486005	0.0039156359	0.00022755409
0.038303904	0.14345992	0.004155057	0.00022755266
0.038500838	0.1264559	0.003636132	0.00022755266
0.038697772	0.12975207	0.0037174697	0.00022755409
0.038894709	0.15231788	0.0043702614	0.00022755266
0.039091643	0.14474772	0.0041506859	0.00022755409
0.03928858	0.16475409	0.0047052037	0.00022755266
0.039485514	0.15759546	0.0044794553	0.00022755266
0.039682448	0.14541024	0.0041319313	0.00022755409
0.039879385	0.1493976	0.0042230277	0.00022755266
0.040076319	0.1296	0.0036549321	0.00022755409
0.040273257	0.15569824	0.0043996121	0.00022754962
0.04047019	0.15592681	0.0043869982	0.00022754962
0.040667124	0.16918188	0.0047563124	0.00022755409
0.040864062	0.14542611	0.0040554795	0.00022755266
0.041060995	0.13297045	0.0036968829	0.00022755409
0.041257933	0.14664586	0.0040841554	0.00022754962
0.041454867	0.13540857	0.0037667579	0.00022755266
0.0416518	0.15564202	0.0043310397	0.00022755409
0.041848738	0.1519084	0.0041868337	0.00022754962
0.042045671	0.13992396	0.0038480731	0.00022754801
0.042242609	0.14828898	0.0040784907	0.00022754657
0.042439543	0.15034169	0.0041318098	0.00022754353
0.042636476	0.14425243	0.0039427816	0.00022754801
0.042833414	0.15963855	0.004369217	0.00022754657
0.043030348	0.1523525	0.0041538384	0.00022754801
0.043227285	0.1536189	0.0041652233	0.00022754353
0.043424219	0.14664702	0.0039700479	0.00022754353
0.043621153	0.13970588	0.003777504	0.00022754801
0.04381809	0.12829912	0.003464086	0.00022754353
0.044015024	0.1316752	0.0035510203	0.00022754495
0.044211961	0.15000001	0.0040280474	0.00022754353
0.044408895	0.13093525	0.0035024921	0.00022754353
0.044605829	0.14583333	0.0038992688	0.00022754495
0.044802766	0.12266858	0.0032759309	0.00022754353
0.0449997	0.13775875	0.0036708191	0.00022754495
0.045196638	0.1335689	0.0035413571	0.00022754353
0.045393571	0.13049646	0.0034663272	0.00022754353
0.045590505	0.15837421	0.0041829464	0.00022754495
0.045787442	0.14375876	0.0037972366	0.00022754048
0.045984376	0.15416667	0.0040536565	0.00022754191
0.046181314	0.11589174	0.0030435398	0.00022754353
0.046378247	0.14088398	0.0036926651	0.00022754048
0.046575181	0.15055248	0.0039461218	0.00022754191
0.046772119	0.13913639	0.003632837	0.00022754353
0.046969052	0.13886999	0.0036141854	0.00022754495
0.04716599	0.14587593	0.0037985959	0.00022754048
0.047362924	0.14016172	0.0036277624	0.00022754048
0.047559857	0.13337801	0.0034429571	0.00022754495
0.047756795	0.1376763	0.0035579063	0.00022754048
0.047953729	0.15761234	0.0040720981	0.00022754495
0.048150666	0.15859324	0.0040754103	0.00022754048
0.0483476	0.13337757	0.0034263197	0.00022754048
0.048544534	0.13555992	0.0034594489	0.00022754191
0.048741471	0.13117996	0.0033579248	0.00022753744
0.048938405	0.14006515	0.0035643463	0.00022754191
0.049135342	0.13499345	0.0034458949	0.00022754048
0.049332276	0.13285807	0.0033728988	0.00022753744
0.04952921	0.12742561	0.0032310113	0.00022753887
0.049726147	0.15667312	0.0039678589	0.00022753744
0.049923081	0.13742875	0.0034480686	0.00022754191
0.050120018	0.13171355	0.0033208912	0.00022753744
0.050316952	0.13435701	0.0033866393	0.00022753744
0.050513886	0.12825397	0.0032214532	0.00022753887
0.050710823	0.13062778	0.0032788145	0.00022753744
0.050907757	0.15270019	0.0037942941	0.00022753887
0.051104695	0.13366646	0.0033304784	0.00022753744
0.051301628	0.12983771	0.0032333576	0.00022753744
0.051498562	0.13171037	0.0032802131	0.00022753887
0.0516955	0.12801485	0.0031730596	0.00022753744
0.051892433	0.14198287	0.0035025394	0.00022753887
0.052089371	0.14135802	0.0035012416	0.0002275344
0.052286305	0.13479052	0.0033109982	0.00022753744
0.052483238	0.12218845	0.0030021593	0.00022753583
0.052680176	0.12826748	0.0031530571	0.0002275344
0.052877109	0.13373861	0.0032875659	0.00022753887
0.053074047	0.12778783	0.0031280385	0.0002275344
0.053270981	0.12179104	0.0029661842	0.00022753744
0.053467914	0.11396182	0.0027739387	0.00022753887
0.053664852	0.11599512	0.0028566555	0.0002275344
0.053861786	0.13808049	0.0034254813	0.00022753583
0.054058723	0.1494396	0.0037182313	0.0002275344
0.054255657	0.10698825	0.0026512309	0.0002275344
0.054452591	0.11819887	0.0029456662	0.00022753583
0.054649528	0.12227074	0.0030438663	0.0002275344
0.054846462	0.12978056	0.0032398624	0.00022753583
0.055043399	0.12854442	0.0032164971	0.00022753136
0.055240333	0.12192041	0.0030537173	0.0002275344
0.055437267	0.11909263	0.0029796506	0.00022753583
0.055634204	0.13266583	0.0033085132	0.00022753136
0.055831138	0.12729576	0.0031935764	0.00022753279
0.056028076	0.12146004	0.0030364338	0.00022753136
0.056225009	0.13590392	0.0034064355	0.00022753136
0.056421943	0.13082322	0.003294429	0.00022753279
0.05661888	0.12633564	0.0031571912	0.00022753136
0.056815814	0.13324952	0.0033306004	0.00022753279
0.057012752	0.1392405	0.0034921181	0.00022753136
0.057209685	0.12058081	0.003019636	0.00022752832
0.057406619	0.13194445	0.0033049062	0.00022753279
0.057603557	0.14150347	0.0035457234	0.00022753136
0.05780049	0.13354431	0.0033495068	0.00022753279
0.057997428	0.16834171	0.0042077769	0.00022752832
0.058194362	0.14583333	0.0036530071	0.00022752832
0.058391295	0.15097915	0.0037827438	0.00022752974
0.058588233	0.14974937	0.0037377963	0.00022752832
0.058785167	0.15632911	0.003921892	0.00022752974
0.058982104	0.16341923	0.0040857391	0.00022752832
0.059179038	0.14824121	0.0037050026	0.00022752832
0.059375972	0.18061674	0.0045201872	0.00022752974
0.059572909	0.15413533	0.0038467702	0.00022752528
0.059769843	0.15626968	0.0039113583	0.00022752974
0.05996678	0.14560099	0.0036137216	0.00022752528
0.060163714	0.14933838	0.0037377644	0.00022752528
0.060360648	0.14588529	0.0036319203	0.00022752974
0.060557585	0.16405761	0.0040945346	0.00022752528
0.060754519	0.15556939	0.0038700814	0.0002275267
0.060951456	0.12921348	0.0032181169	0.00022752528
0.06114839	0.13565651	0.0033732268	0.00022752528
0.061345324	0.124533	0.0030967931	0.0002275267
0.061542261	0.12484472	0.0031006064	0.00022752528
0.061739195	0.12624379	0.0031377675	0.0002275267
0.061936133	0.133292	0.0033086149	0.00022752528
0.062133066	0.11138614	0.0027607197	0.00022752528
0.06233	0.10092308	0.002493259	0.00022752528
0.062526934	0.11063041	0.0027400414	0.0002275251
0.062723875	0.11600497	0.0028793998	0.00022751919
0.062920809	0.11282367	0.0027912369	0.00022752528
0.063117743	0.11469312	0.0028454708	0.00022751919
0.063314676	0.11689106	0.0028821535	0.00022751919
0.06351161	0.11667684	0.0028740738	0.00022752814
0.063708551	0.10300429	0.0025411556	0.00022751919
0.063905485	0.11866502	0.0029404843	0.00022751919
0.064102419	0.12134147	0.0029869548	0.00022751919
0.064299352	0.10961421	0.0027027922	0.00022752528
0.064496286	0.095790118	0.0023555025	0.00022752205
0.064693227	0.10935602	0.0026864933	0.00022751919
0.064890161	0.10181818	0.0024965778	0.00022751919
0.065087095	0.097739771	0.0024060546	0.00022752528
0.065284029	0.10873549	0.002678111	0.00022752528
0.065480962	0.13075061	0.0032084195	0.00022752205
0.065677904	0.1101083	0.0026917066	0.00022752528
0.065874837	0.096188746	0.0023562966	0.00022751919
0.066071771	0.081878386	0.0020002602	0.00022751919
0.066268705	0.098548971	0.002414353	0.00022751919
0.066465639	0.10957254	0.0026793475	0.00022752205
0.06666258	0.098802395	0.0024078232	0.00022751919
0.066859514	0.099939428	0.0024495157	0.00022751919
0.067056447	0.10225922	0.0024835668	0.00022751919
0.067253381	0.098027498	0.0023876054	0.00022751919
0.067450315	0.095038854	0.0023149007	0.00022751596
0.067647256	0.094011977	0.0022915206	0.00022751919
0.06784419	0.093525179	0.0022815121	0.00022751919
0.068041123	0.099408284	0.0024090535	0.00022751311
0.068238057	0.096621223	0.0023442004	0.00022751311
0.068434991	0.10635769	0.0025839536	0.00022752205
0.068631932	0.10283688	0.0024918523	0.00022751311
0.068828866	0.093301438	0.002272669	0.00022751311
0.0690258	0.093512565	0.0022519885	0.00022751311
0.069222733	0.090318769	0.0021854434	0.00022751311
0.069419667	0.080969267	0.001959495	0.00022751596
0.069616608	0.1066823	0.0025735477	0.00022751311
0.069813542	0.086905465	0.0020977585	0.00022751311
0.070010476	0.085394584	0.0020635154	0.00022751311
0.07020741	0.08741878	0.0021167654	0.00022751311
0.070404343	0.086077414	0.0020608627	0.00022752205
0.070601285	0.10507881	0.002529063	0.00022751311
0.070798218	0.073794305	0.0017699923	0.00022751311
0.070995152	0.090322584	0.0021785479	0.00022751311
0.071192086	0.07939288	0.0019099615	0.00022751311
0.071389019	0.092635214	0.0022136974	0.00022751596
0.071585961	0.087006964	0.0020867602	0.00022750701
0.071782894	0.081502892	0.0019509468	0.00022751311
0.071979828	0.095763206	0.002298414	0.00022751311
0.072176762	0.093371756	0.0022328678	0.00022751311
0.072373696	0.081948422	0.0019535087	0.00022751596
0.072570637	0.083478265	0.002001758	0.00022751311
0.072767571	0.090392269	0.0021459088	0.00022750701
0.072964504	0.080439813	0.0019268553	0.00022750701
0.073161438	0.075525269	0.001791438	0.00022751311
0.073358372	0.061784897	0.0014703306	0.00022750988
0.073555313	0.073732719	0.0017612701	0.00022750701
0.073752247	0.072357267	0.0017127355	0.00022751311
0.073949181	0.07191781	0.0017103174	0.00022750701
0.074146114	0.072439164	0.0017154333	0.00022751311
0.074343048	0.08043354	0.001911893	0.00022750988
0.074539989	0.087450311	0.0020758836	0.00022750701
0.074736923	0.073225267	0.0017238798	0.00022750701
0.074933857	0.073989756	0.0017569761	0.00022750701
0.07513079	0.074324325	0.001755406	0.00022750701
0.075327724	0.084459461	0.0019960376	0.0002275038
0.075524665	0.076619722	0.001811541	0.00022750701
0.075721599	0.080178171	0.0018841246	0.00022750093
0.075918533	0.073761262	0.0017429482	0.00022750701
0.076115467	0.077783994	0.0018322994	0.00022750701
0.0763124	0.067001678	0.0015759327	0.00022750988
0.076509342	0.075639598	0.0017764987	0.00022750701
0.076706275	0.07773459	0.0018242587	0.00022750701
0.076903209	0.081838563	0.0019300183	0.00022750701
0.077100143	0.084297523	0.0019714779	0.00022750093
0.077297077	0.074833706	0.0017548689	0.0002275038
0.077494018	0.068965517	0.0016194658	0.00022750093
0.077690952	0.084112152	0.0019641314	0.00022750093
0.077887885	0.066295266	0.0015575045	0.00022750093
0.078084819	0.067538127	0.0015696463	0.00022750093
0.078281753	0.074848652	0.0017483203	0.0002275038
0.078478694	0.084755093	0.0019806412	0.00022750093
0.078675628	0.07973785	0.001855908	0.00022750093
0.078872561	0.069459759	0.0016232675	0.00022750093
0.079069495	0.064850137	0.0015067398	0.00022750093
0.079266429	0.068194218	0.0015853309	0.0002275038
0.07946337	0.065976009	0.0015338868	0.00022750093
0.079660304	0.072471604	0.0016785029	0.00022750093
0.079857238	0.073184051	0.0017034152	0.00022750093
0.080054171	0.078420766	0.0018165372	0.00022750093
0.080251105	0.074114442	0.0017227482	0.0002275038
0.080448046	0.076549865	0.0017699628	0.00022749485
0.08064498	0.075481802	0.0017384082	0.00022750093
0.080841914	0.071544714	0.0016583215	0.00022750093
0.081038848	0.079935625	0.0018436511	0.00022749485
0.081235781	0.070346318	0.001628885	0.00022749772
0.081432723	0.076840982	0.0017677047	0.00022749485
0.081629656	0.073066667	0.0016805978	0.00022749485
0.08182659	0.063203	0.0014560692	0.00022749485
0.082023524	0.059073977	0.0013558988	0.00022749485
0.082220457	0.06199893	0.0014263461	0.00022749772
0.082417399	0.065066665	0.0014959655	0.00022749485
0.082614332	0.073975518	0.0016998105	0.00022749485
0.082811266	0.058948487	0.0013513581	0.00022749485
0.0830082	0.079999998	0.0018287236	0.00022749485
0.083205134	0.071881607	0.0016458316	0.00022749163
0.083402075	0.055995774	0.0012804513	0.00022749485
0.083599009	0.068121344	0.0015649184	0.00022749485
0.083795942	0.072927594	0.0016632925	0.00022748877
0.083992876	0.07019382	0.0015998913	0.00022749485
0.08418981	0.067015707	0.001527062	0.00022749772
0.084386751	0.061747774	0.0014050429	0.00022748877
0.084583685	0.073706217	0.0016786127	0.00022749485
0.084780619	0.07079646	0.001608434	0.00022749485
0.084977552	0.05584551	0.0012690587	0.00022748877
0.085174486	0.062564634	0.0014162553	0.00022749163
0.085371427	0.058762349	0.0013325199	0.00022748877
0.085568361	0.063304171	0.0014292246	0.00022748877
0.085765295	0.068415634	0.0015452823	0.00022748877
0.085962228	0.053701773	0.0012190485	0.00022748877
0.086159162	0.0623069	0.0014071233	0.00022748555
0.086356103	0.077981651	0.0017537024	0.00022748877
0.086553037	0.071355239	0.0016103705	0.00022748877
0.086749971	0.068054847	0.0015272247	0.00022748877
0.086946905	0.061213993	0.0013821819	0.00022748268
0.087143838	0.061327927	0.0013738953	0.00022749163
0.08734078	0.060683325	0.0013635636	0.00022748877
0.087537713	0.064842962	0.0014522267	0.00022748268
0.087734647	0.067779467	0.0015176213	0.00022748877
0.087931581	0.075711384	0.0016995866	0.00022748877
0.088128515	0.073329985	0.0016373324	0.00022748555
0.088325456	0.064451158	0.0014400582	0.00022748268
0.08852239	0.054177213	0.0012129305	0.00022748268
0.088719323	0.060409386	0.0013436032	0.00022748268
0.088916257	0.075150304	0.0016759228	0.00022748268
0.089113191	0.081918083	0.0018248063	0.00022748555
0.089310132	0.068431571	0.0015230549	0.00022748268
0.089507066	0.070219122	0.001560493	0.00022748268
0.089703999	0.069444448	0.0015405485	0.00022748268
0.089900933	0.07	0.0015587542	0.00022748268
0.090097867	0.069355629	0.0015318705	0.00022747947
0.090294808	0.060817547	0.0013512719	0.00022748268
0.090491742	0.06956093	0.0015389124	0.00022748268
0.090688676	0.057834897	0.0012797208	0.00022748268
0.090885609	0.049358342	0.001090913	0.0002274766
0.091082543	0.071885772	0.0015891932	0.00022748268
0.091279477	0.068371862	0.0015093976	0.00022748555
0.091476418	0.068371862	0.0015100286	0.0002274766
0.091673352	0.068847656	0.0015152227	0.00022748268
0.091870286	0.070692196	0.001560177	0.0002274766
0.092067219	0.075905971	0.0016739741	0.0002274766
0.092264153	0.07010711	0.0015402451	0.00022747947
0.092461094	0.063414633	0.0013942893	0.0002274766
0.092658028	0.059168704	0.0013023277	0.0002274766
0.092854962	0.05902274	0.0012918013	0.0002274766
0.093051895	0.064765587	0.0014179936	0.0002274766
0.093248829	0.061194755	0.0013425489	0.00022747337
0.09344577	0.069115512	0.0015136297	0.0002274766
0.093642704	0.058309037	0.0012794628	0.00022747052
0.093839638	0.061234329	0.0013386898	0.0002274766
0.094036572	0.061087061	0.0013341965	0.0002274766
0.094233505	0.064547203	0.0014108265	0.00022747947
0.094430447	0.074233718	0.0016184099	0.00022747052
0.09462738	0.071014494	0.0015545321	0.00022747052
0.094824314	0.075083695	0.0016357993	0.00022747052
0.095021248	0.070847295	0.0015437118	0.00022747052
0.095218182	0.064731084	0.0014060416	0.00022747337
0.095415123	0.064022936	0.0013931218	0.00022747052
0.095612057	0.070986181	0.0015431729	0.00022747052
0.09580899	0.048026629	0.0010412971	0.00022747052
0.096005924	0.055023924	0.0011978088	0.00022747052
0.096202858	0.062588908	0.0013567772	0.00022747337
0.096399799	0.069030732	0.0014955204	0.00022747052
0.096596733	0.066792101	0.0014424424	0.00022746444
0.096793666	0.065689981	0.0014220458	0.00022747052
0.0969906	0.06427221	0.0013914943	0.00022746444
0.097187534	0.080113098	0.0017330223	0.00022747337
0.097384475	0.066603683	0.0014413001	0.00022746444
0.097581409	0.069078945	0.0014914722	0.00022747052
0.097778343	0.053047929	0.00113912	0.00022746444
0.097975276	0.075764708	0.0016375679	0.00022746444
0.09817221	0.072294779	0.0015557997	0.00022746729
0.098369151	0.065063648	0.0014071435	0.00022746444
0.098566085	0.060676239	0.0013000848	0.00022746444
0.098763019	0.058548011	0.0012615906	0.00022746444
0.098959953	0.061517112	0.0013175958	0.00022746444
0.099156886	0.066974595	0.0014340709	0.00022746121
0.099353828	0.060690943	0.0013057309	0.00022746444
0.099550761	0.065985128	0.0014165892	0.00022745834
0.099747695	0.067312129	0.0014398074	0.00022745834
0.099944629	0.063367255	0.0013569068	0.00022745834
0.10014156	0.057931036	0.001236574	0.00022746121
0.1003385	0.061836641	0.0013225127	0.00022745834
0.10053544	0.056422018	0.001202898	0.00022746444
0.10073237	0.068773232	0.0014764116	0.00022745834
0.1009293	0.061869845	0.001319011	0.00022746444
0.10112624	0.051363636	0.0010895198	0.00022746121
0.10132318	0.056525737	0.0012062168	0.00022746444
0.10152011	0.048614267	0.001030968	0.00022745834
0.10171705	0.057613168	0.0012262528	0.00022745834
0.10191398	0.059708294	0.0012686469	0.00022745834
0.10211091	0.060301509	0.0012827001	0.00022746121
0.10230786	0.06139154	0.0013035263	0.00022745834
0.10250479	0.060578663	0.0012827881	0.00022745226
0.10270172	0.072072074	0.0015235809	0.00022745226
0.10289866	0.063781321	0.0013562506	0.00022745226
0.10309559	0.058212996	0.0012313458	0.00022745512
0.10329253	0.059836809	0.0012684136	0.00022745226
0.10348947	0.069058299	0.0014563522	0.00022745834
0.1036864	0.06666667	0.0014093481	0.00022745226
0.10388333	0.05877075	0.001239827	0.00022745226
0.10408027	0.058029689	0.0012256078	0.00022746121
0.10427721	0.067264572	0.0014192064	0.00022745226
0.10447414	0.064602964	0.0013629695	0.00022745226
0.10467108	0.061497327	0.001293375	0.00022745226
0.10486801	0.066607065	0.0014032178	0.00022745226
0.10506494	0.068736143	0.0014421531	0.00022745512
0.10526188	0.07126949	0.0014990246	0.00022745226
0.10545882	0.090420768	0.0019074677	0.00022744617
0.10565575	0.083739474	0.0017572746	0.00022745226
0.10585269	0.073712252	0.0015478274	0.00022745226
0.10604962	0.088339224	0.0018514179	0.00022745512
0.10624656	0.09115044	0.0019119497	0.00022744617
0.10644349	0.083848193	0.0017562397	0.00022744617
0.10664043	0.10523998	0.0022028754	0.00022745226
0.10683736	0.12118532	0.0025434415	0.00022744617
0.1070343	0.11267605	0.002358451	0.00022744904
0.10723124	0.10712724	0.0022350368	0.00022744617
0.10742817	0.1123348	0.0023524975	0.00022744617
0.1076251	0.10715835	0.0022269883	0.00022744617
0.10782204	0.10241758	0.0021425986	0.00022744617
0.10801897	0.10668999	0.0022256246	0.00022744904
0.10821591	0.10897155	0.0022743959	0.00022744617
0.10841285	0.095030516	0.0019791094	0.00022744617
0.10860978	0.097360447	0.0020205583	0.00022744009
0.10880671	0.090869181	0.0018990698	0.00022744009
0.10900365	0.098403111	0.0020392721	0.00022744904
0.10920059	0.11240813	0.0023321372	0.00022744009
0.10939752	0.10238612	0.0021274835	0.00022744009
0.10959446	0.11058316	0.0022935646	0.00022744009
0.10979139	0.10034753	0.0020868133	0.00022744009
0.10998832	0.096870981	0.0020006842	0.00022744296
0.11018527	0.101768	0.0021086247	0.00022744009
0.1103822	0.11115898	0.0023024327	0.00022744009
0.11057913	0.10042918	0.0020758016	0.00022743401
0.11077607	0.11962134	0.0024767553	0.00022744009
0.110973	0.13458262	0.0027725711	0.00022743687
0.11116994	0.14065841	0.0029034698	0.00022743401
0.11136688	0.14860813	0.0030705566	0.00022743401
0.11156381	0.13653764	0.0028110708	0.00022743401
0.11176074	0.16452992	0.0033964629	0.00022743401
0.11195768	0.15267175	0.0031394279	0.00022744296
0.11215462	0.17357846	0.0035843349	0.00022743401
0.11235155	0.20670629	0.0042537544	0.00022743401
0.11254849	0.21190375	0.0043489933	0.00022743401
0.11274542	0.23751058	0.0048817871	0.00022743401
0.11294235	0.25328809	0.0052122334	0.00022743687
0.11313929	0.26068556	0.0053580282	0.00022743401
0.11333623	0.28157786	0.0057633789	0.00022743401
0.11353316	0.2820296	0.0057945405	0.00022742792
0.1137301	0.31932774	0.0065406961	0.00022743401
0.11392703	0.29497907	0.0060290983	0.00022743079
0.11412397	0.2944141	0.0060289968	0.00022742792
0.1143209	0.30811265	0.0063123899	0.00022742792
0.11451784	0.3248221	0.0066409679	0.00022742792
0.11471477	0.37515736	0.0076804543	0.00022742792
0.11491171	0.3827672	0.0077857361	0.00022743079
0.11510865	0.41611019	0.0084963981	0.00022742792
0.11530558	0.42922565	0.0087533966	0.00022742792
0.11550251	0.47636971	0.00973754	0.00022742792
0.11569945	0.53957731	0.010979538	0.00022742792
0.11589638	0.6913529	0.014057623	0.00022743079
0.11609332	0.79702353	0.016199902	0.00022742792
0.11629026	1.0107616	0.020558061	0.00022742792
0.11648719	1.3344357	0.02712534	0.00022742184
0.11668412	1.8364987	0.037309229	0.00022742184
0.11688106	2.5600662	0.052095659	0.00022742471
0.117078	3.6422698	0.073844403	0.00022742184
0.11727493	5.0278344	0.10170747	0.00022742184
0.11747187	7.0319281	0.14224978	0.00022742184
0.1176688	9.2263222	0.18679477	0.00022742184
0.11786573	11.90099	0.24169232	0.00022742471
0.11806267	14.37648	0.2904751	0.00022742184
0.11825961	16.547726	0.3348957	0.00022742184
0.11845654	18.199919	0.36646715	0.00022742184
0.11865348	18.987789	0.38303506	0.00022742184
0.11885041	19.157312	0.38772485	0.00022741863
0.11904735	18.517004	0.37256312	0.00022741576
0.11924428	17.32262	0.34938473	0.00022741576
0.11944122	15.860842	0.31899613	0.00022741576
0.11963815	14.259545	0.28737289	0.00022741576
0.11983509	12.733226	0.25521502	0.00022741863
0.12003203	11.292004	0.2269173	0.00022741576
0.12022896	9.7362862	0.19624567	0.00022741576
0.12042589	8.4259109	0.16951932	0.00022741576
0.12062283	7.3022046	0.1461698	0.00022741576
0.12081976	5.9899721	0.1199463	0.00022741863
0.1210167	4.7712002	0.095405169	0.00022741576
0.12121364	3.8243134	0.076838188	0.00022740968
0.12141057	2.9956088	0.059837259	0.00022740968
0.1216075	2.29282	0.045909349	0.00022741576
0.12180444	1.7882166	0.03566917	0.00022741254
0.12200138	1.3232363	0.026409676	0.00022740968
0.12219831	1.023163	0.020440742	0.00022741576
0.12239525	0.83762378	0.01666397	0.00022741576
0.12259218	0.71394324	0.014265416	0.00022740968
0.12278911	0.5590927	0.01114826	0.00022741254
0.12298606	0.49046862	0.0097696204	0.00022740968
0.12318299	0.44734758	0.0088961469	0.00022740968
0.12337992	0.38485682	0.0076183351	0.00022740968
0.12357686	0.34351447	0.0068373401	0.00022740968
0.12377379	0.29079416	0.0057757888	0.00022740646
0.12397073	0.26964074	0.0053530028	0.00022740968
0.12416767	0.25137469	0.0049775904	0.00022740359
0.1243646	0.24137931	0.0047736922	0.00022740359
0.12456153	0.20307571	0.0040282886	0.00022740359
0.12475847	0.20141065	0.0039826538	0.00022740646
0.12495541	0.18890201	0.0037428339	0.00022739463
0.12515233	0.17396404	0.0034353537	0.00022740323
0.12534928	0.16660179	0.0032828287	0.00022739751
0.12554622	0.13648807	0.0026952224	0.00022739751
0.12574315	0.13330743	0.0026239033	0.00022739751
0.12594008	0.14654163	0.0028926826	0.00022739751
0.12613702	0.13097551	0.0025780899	0.00022740968
0.12633395	0.12202729	0.0024052528	0.00022740968
0.12653089	0.12896979	0.0025336372	0.00022739751
0.12672782	0.12171561	0.0023885274	0.00022739751
0.12692475	0.1199377	0.0023625717	0.00022739751
0.12712169	0.11523736	0.0022509021	0.00022740323
0.12731864	0.10653188	0.0020962774	0.00022739751
0.12751557	0.096575603	0.0018902007	0.00022739751
0.1277125	0.10038462	0.0019647859	0.00022739751
0.12790944	0.081884898	0.0016053822	0.00022739751
0.12810637	0.074202232	0.0014509021	0.00022739751
0.1283033	0.09390571	0.0018344144	0.00022739751
0.12850024	0.10272135	0.0020070097	0.00022739751
0.12869717	0.090630978	0.0017680241	0.00022738535
0.12889411	0.075681902	0.0014792132	0.00022739751
0.12909104	0.082540892	0.0016055764	0.00022740323
0.12928799	0.086273007	0.0016850844	0.00022739751
0.12948492	0.071239106	0.0013828094	0.00022739751
0.12968186	0.064959876	0.0012658403	0.00022738535
0.12987879	0.078827113	0.0015342148	0.00022738535
0.13007572	0.070752934	0.0013722677	0.00022738535
0.13027266	0.072298326	0.0014063552	0.00022738535
0.13046959	0.065003783	0.0012598298	0.00022738535
0.13066652	0.076981418	0.0014947024	0.00022738535
0.13086346	0.068431005	0.0013266177	0.00022739751
0.13106039	0.069017254	0.0013326596	0.00022740323
0.13125734	0.068060838	0.0013231058	0.00022738535
0.13145427	0.060105182	0.0011605187	0.00022738535
0.13165121	0.070056498	0.0013555411	0.00022738535
0.13184814	0.061820906	0.0011926518	0.00022738535
0.13204508	0.05363841	0.0010350317	0.00022738535
0.13224201	0.061555892	0.0011922269	0.00022738535
0.13243894	0.055306427	0.0010653732	0.00022738535
0.13263588	0.058122206	0.0011179893	0.00022738535
0.13283281	0.047868364	0.00092179031	0.00022738535
0.13302974	0.055763472	0.0010748153	0.00022739106
0.13322669	0.061194029	0.0011778383	0.00022738535
0.13342363	0.062638991	0.0012020761	0.00022738535
0.13362056	0.05421463	0.0010407844	0.00022738535
0.13381749	0.060007453	0.0011544807	0.00022737318
0.13401443	0.061383929	0.0011798964	0.00022737318
0.13421136	0.05974026	0.0011469559	0.00022738535
0.1344083	0.054163598	0.0010360456	0.00022737318
0.13460523	0.056541018	0.0010831484	0.00022737318
0.13480216	0.063940518	0.0012290424	0.00022737318
0.1349991	0.061851852	0.0011862619	0.0002273789
0.13519605	0.060197007	0.0011463451	0.00022737318
0.13539298	0.054054055	0.0010363592	0.00022737318
0.13558991	0.055677656	0.0010618801	0.00022737318
0.13578685	0.051084161	0.00097565906	0.00022737318
0.13598378	0.0563896	0.0010752728	0.00022737318
0.13618071	0.060751103	0.0011619963	0.00022737318
0.13637765	0.058952764	0.0011243057	0.00022737318
0.13657458	0.051150896	0.00097415253	0.00022737318
0.13677152	0.05102041	0.00097022718	0.00022737318
0.13696845	0.0625	0.0011876981	0.00022737318
0.13716538	0.066812709	0.0012729049	0.0002273789
0.13736233	0.053421147	0.0010177754	0.00022737318
0.13755926	0.050216764	0.00095046556	0.00022737318
0.1377562	0.048434086	0.00092054089	0.00022737318
0.13795313	0.048621189	0.00092229526	0.00022736102
0.13815007	0.049837485	0.00094348058	0.00022736102
0.138347	0.049673676	0.00094232452	0.00022737318
0.13854393	0.052158274	0.00098566769	0.00022737318
0.13874087	0.045818184	0.00087023684	0.00022736102
0.1389378	0.051624548	0.00097723666	0.00022736102
0.13913473	0.054102473	0.0010204683	0.00022736673
0.13933168	0.053558592	0.0010116032	0.00022737318
0.13952862	0.054937165	0.001037384	0.00022737318
0.13972555	0.051598836	0.00097981247	0.00022736102
0.13992248	0.054169636	0.0010190273	0.00022736102
0.14011942	0.047328793	0.00089264131	0.00022736102
0.14031635	0.050429184	0.00095019653	0.00022737318
0.14051329	0.044595078	0.0008388196	0.00022736102
0.14071022	0.060279872	0.0011381906	0.00022736102
0.14090715	0.054925583	0.0010304817	0.00022736102
0.14110409	0.053552303	0.0010083935	0.00022736673
0.14130104	0.055396713	0.0010436389	0.00022736102
0.14149797	0.052799433	0.00099021383	0.00022736102
0.1416949	0.054984037	0.0010321272	0.00022734885
0.14189184	0.048409894	0.00090634509	0.00022736102
0.14208877	0.051785715	0.00097517134	0.00022736102
0.1422857	0.052109182	0.00097751908	0.00022736102
0.14248264	0.051246051	0.00095656235	0.00022736102
0.14267957	0.053546101	0.0010046769	0.00022736102
0.14287651	0.052372582	0.00097822887	0.00022736102
0.14307344	0.047062986	0.00088142388	0.00022735457
0.14327039	0.057273366	0.001070107	0.00022736102
0.14346732	0.045038704	0.00084131776	0.00022734885
0.14366426	0.048087049	0.00089734083	0.00022734885
0.14386119	0.041067041	0.00076555274	0.00022736102
0.14405812	0.039929949	0.00074385776	0.00022734885
0.14425506	0.042901989	0.00079779804	0.00022734885
0.14445199	0.051210102	0.00095573656	0.00022734885
0.14464892	0.040716041	0.0007594825	0.00022734885
0.14484586	0.048314217	0.0008972871	0.00022734885
0.14504279	0.047071129	0.00087545568	0.00022735457
0.14523974	0.051831376	0.00096004381	0.00022734885
0.14543667	0.043142758	0.00080468511	0.00022733668
0.14563361	0.044429019	0.00082429039	0.00022734885
0.14583054	0.046576295	0.00086442888	0.00022734885
0.14602748	0.045313042	0.00083913072	0.00022734885
0.14622441	0.042229146	0.0007822577	0.00022733668
0.14642134	0.039391845	0.00072858715	0.00022734885
0.14661828	0.047176309	0.00087215373	0.00022733668
0.14681521	0.041247834	0.00076456839	0.00022733668
0.14701214	0.048292514	0.00089350174	0.0002273424
0.14720909	0.041681021	0.0007702611	0.00022733668
0.14740603	0.04860393	0.00089902704	0.00022733668
0.14760296	0.040871933	0.00075091538	0.00022733668
0.14779989	0.038925249	0.00071919971	0.00022733668
0.14799683	0.046159144	0.00085303228	0.00022733668
0.14819376	0.041552197	0.0007664283	0.00022733668
0.1483907	0.044847656	0.0008264294	0.00022733668
0.14858763	0.041184478	0.00075627584	0.00022733668
0.14878456	0.043971144	0.00081142958	0.00022733668
0.1489815	0.045084745	0.00082647847	0.0002273424
0.14917845	0.040885862	0.00075135188	0.00022733668
0.14937538	0.04229195	0.00077786832	0.00022733668
0.14957231	0.042329833	0.00077576842	0.00022733668
0.14976925	0.047945205	0.00088383374	0.00022733668
0.14996618	0.045837548	0.00083814707	0.00022733668
0.15016311	0.048474576	0.00088933879	0.00022732452
0.15036005	0.047602855	0.00087442814	0.00022732452
0.15055698	0.037061993	0.00067702658	0.00022733668
0.15075392	0.037049625	0.00067957846	0.00022733668
0.15095085	0.038913116	0.00070900872	0.00022733024
0.1511478	0.046480298	0.00084962609	0.00022732452
0.15134473	0.03922895	0.0007180362	0.00022733668
0.15154167	0.036564913	0.00066645449	0.00022732452
0.1517386	0.042596348	0.00077972328	0.00022732452
0.15193553	0.050234426	0.00091572624	0.00022732452
0.15213247	0.037310924	0.00068080454	0.00022733668
0.1523294	0.04156889	0.00075785379	0.00022732452
0.15252633	0.037654117	0.00068420195	0.00022732452
0.15272327	0.052191369	0.00095133233	0.00022732452
0.1529202	0.04337671	0.00078904472	0.00022733024
0.15311715	0.049966466	0.00091175415	0.00022732452
0.15331408	0.045862414	0.00083291536	0.00022732452
0.15351102	0.047539894	0.00086365297	0.00022732452
0.15370795	0.044925123	0.00081635814	0.00022731235
0.15390489	0.044259567	0.00080411904	0.00022732452
0.15410182	0.041680451	0.00075475604	0.00022732452
0.15429875	0.040199336	0.00072950154	0.00022732452
0.15449569	0.035524569	0.00064397097	0.00022731235
0.15469262	0.041363336	0.00074930029	0.00022731235
0.15488955	0.04677207	0.00084562408	0.00022731809
0.1550865	0.047760211	0.00086344441	0.00022732452
0.15528344	0.048045062	0.00087130681	0.00022731235
0.15548037	0.045048028	0.0008168061	0.00022731235
0.1556773	0.048524588	0.00087516784	0.00022731235
0.15587424	0.057990115	0.0010494306	0.00022731235
0.15607117	0.055156659	0.00099330524	0.00022731235
0.1562681	0.046818331	0.00084696373	0.00022731235
0.15646504	0.043692511	0.00078889314	0.00022732452
0.15666197	0.039241333	0.00070652377	0.00022731235
0.15685891	0.039555412	0.00071174733	0.00022731809
0.15705585	0.046982054	0.00084503228	0.00022731235
0.15725279	0.06188605	0.0011164963	0.00022731235
0.15744972	0.054941483	0.00098721916	0.00022731235
0.15764666	0.041992188	0.00075412588	0.00022731235
0.15784359	0.050491802	0.00091058738	0.00022731235
0.15804052	0.043450065	0.00077908434	0.00022731235
0.15823746	0.046269145	0.00083168736	0.00022731235
0.15843439	0.048615582	0.00086898851	0.00022731235
0.15863132	0.04539559	0.00081393658	0.00022730019
0.15882826	0.037133552	0.00066704088	0.00022731809
0.15902521	0.046218488	0.00082732039	0.00022730019
0.15922214	0.044379655	0.00079519779	0.00022730019
0.15941907	0.040089801	0.00071435882	0.00022731235
0.15961601	0.042084817	0.00075373932	0.00022730019
0.15981294	0.051513199	0.00092065963	0.00022730019
0.16000988	0.05022537	0.00089774781	0.00022730019
0.16020681	0.038003221	0.0006786802	0.00022730019
0.16040374	0.046809874	0.0008349109	0.00022730019
0.16060068	0.041908447	0.00074909505	0.00022730019
0.16079761	0.042743221	0.00076010596	0.00022730592
0.16099456	0.044338118	0.00078865682	0.00022730019
0.16119149	0.047634374	0.00085099682	0.00022730019
0.16138843	0.042532779	0.00075708504	0.00022730019
0.16158536	0.044857416	0.0007997097	0.00022730019
0.16178229	0.040673658	0.00072192185	0.00022728802
0.16197923	0.047223996	0.00084017689	0.00022728802
0.16217616	0.046408139	0.00082395074	0.00022728802
0.1623731	0.042979944	0.00076331862	0.00022728802
0.16257003	0.037131071	0.00065792073	0.00022728802
0.16276696	0.035260484	0.00062484056	0.00022730592
0.16296391	0.041613724	0.0007377931	0.00022728802
0.16316085	0.043340717	0.00076739397	0.00022730019
0.16335778	0.044922493	0.00079480367	0.00022728802
0.16355471	0.053577058	0.00094749557	0.00022728802
0.16375165	0.036797933	0.00065699389	0.00022728802
0.16394858	0.03793329	0.00068219088	0.00022728802
0.16414551	0.040156711	0.00072187383	0.00022728802
0.16434245	0.047918044	0.00086731242	0.00022728802
0.16453938	0.038896278	0.00070570811	0.00022728802
0.16473632	0.039759438	0.00072329835	0.00022729376
0.16493326	0.034029651	0.00062133081	0.00022728802
0.1651302	0.034552164	0.00062932679	0.00022727586
0.16532713	0.042065665	0.0007741162	0.00022728802
0.16552407	0.044346649	0.0008119971	0.00022727586
0.165721	0.040338982	0.00073901395	0.00022728802
0.16591793	0.045657396	0.00084184413	0.00022727586
0.16611487	0.047994513	0.0008848334	0.00022727586
0.1663118	0.049305554	0.00091498677	0.00022728802
0.16650873	0.041595049	0.00076761428	0.00022728802
0.16670567	0.042714432	0.00078903663	0.00022728159
0.16690262	0.042723168	0.00079265604	0.00022727586
0.16709955	0.043887146	0.00081543665	0.00022727586
0.16729648	0.041432586	0.00077265466	0.00022727586
0.16749342	0.043523677	0.00080845598	0.00022727586
0.16769035	0.038824763	0.00072212779	0.00022727586
0.16788729	0.042019773	0.00078574178	0.00022727586
0.16808422	0.042767733	0.00079283671	0.00022727586
0.16828115	0.0481757	0.00090240658	0.00022727586
0.16847809	0.052687038	0.00098347734	0.00022726369
0.16867502	0.039040115	0.00073482963	0.00022728159
0.16887197	0.038311459	0.0007173582	0.00022727586
0.1690689	0.039548021	0.00073912472	0.00022726369
0.16926584	0.04299929	0.00080659438	0.00022727586
0.16946277	0.038817663	0.00072868122	0.00022727586
0.1696597	0.042790364	0.00080745743	0.00022726369
0.16985664	0.04132526	0.00077624433	0.00022726369
0.17005357	0.046445157	0.0008736173	0.00022727586
0.17025051	0.042400286	0.00079953647	0.00022726369
0.17044744	0.041233417	0.00077673944	0.00022726369
0.17064437	0.037837837	0.00071439252	0.00022726943
0.17084132	0.038876891	0.00073374488	0.00022727586
0.17103826	0.041894354	0.00079555286	0.00022726369
0.17123519	0.040897574	0.00077400421	0.00022726369
0.17143212	0.040331293	0.00076143933	0.00022726369
0.17162906	0.037278321	0.00070513255	0.00022726369
0.17182599	0.047275353	0.00089396909	0.00022726369
0.17202292	0.040132549	0.00076595671	0.00022726369
0.17221986	0.048275862	0.00091598101	0.00022726369
0.17241679	0.038279258	0.00072686491	0.00022726369
0.17261373	0.046299674	0.00087981817	0.00022725726
0.17281067	0.044048052	0.00083640224	0.00022726369
0.17300761	0.039618488	0.00075484213	0.00022726369
0.17320454	0.046647232	0.00088652101	0.00022725153
0.17340147	0.04283604	0.0008188347	0.00022725153
0.17359841	0.042388499	0.00080954767	0.00022725153
0.17379534	0.043701798	0.0008334553	0.00022726369
0.17399228	0.041070774	0.0007826683	0.00022726369
0.17418921	0.042888563	0.00081723474	0.00022725153
0.17438614	0.040193524	0.00077100343	0.00022725153
0.17458308	0.046091445	0.00088048552	0.00022725726
0.17478003	0.044427991	0.00085001485	0.00022725153
0.17497696	0.047319777	0.00090548565	0.00022725153
0.17517389	0.049595885	0.00094620715	0.00022725153
0.17537083	0.048707381	0.00093850424	0.00022723936
0.17556776	0.049852289	0.00095323817	0.00022723936
0.17576469	0.05104322	0.00098082959	0.00022723936
0.17596163	0.039611362	0.00076129433	0.00022725153
0.17615856	0.036734693	0.00070343661	0.00022725153
0.1763555	0.0394492	0.00075662369	0.00022725153
0.17655243	0.033036377	0.00063270121	0.00022724509
0.17674938	0.043951917	0.00084775663	0.00022723936
0.17694631	0.040869892	0.00078729907	0.00022723936
0.17714325	0.038533483	0.00074140128	0.00022725153
0.17734018	0.039804731	0.00076729077	0.00022723936
0.17753711	0.039791744	0.00076356827	0.00022723936
0.17773405	0.038317055	0.00073864369	0.00022723936
0.17793098	0.043018866	0.00083144521	0.00022723936
0.17812791	0.037898686	0.00073026633	0.00022723936
0.17832485	0.042121097	0.00081236282	0.00022723936
0.17852178	0.040270984	0.00077719981	0.00022724509
0.17871873	0.047187619	0.00091273466	0.00022723936
0.17891566	0.0413845	0.00079847261	0.00022723936
0.1791126	0.040423121	0.00078147074	0.00022722721
0.17930953	0.032087579	0.00061953336	0.00022723936
0.17950647	0.033737682	0.00065237255	0.00022723936
0.1797034	0.034782607	0.00067203341	0.00022723936
0.17990033	0.039984912	0.00077243772	0.00022723936
0.18009727	0.044106465	0.00085598527	0.00022722721
0.1802942	0.043165468	0.00083582947	0.00022722721
0.18049113	0.032912362	0.00063961174	0.00022723294
0.18068808	0.050018948	0.00096915511	0.00022722721
0.18088502	0.045850702	0.00088772306	0.00022722721
0.18108195	0.033155486	0.00064269727	0.00022722721
0.18127888	0.041809198	0.00081086456	0.00022722721
0.18147582	0.035114504	0.00068143144	0.00022722721
0.18167275	0.033004552	0.00063856965	0.00022722721
0.18186969	0.034482758	0.00067083107	0.00022722721
0.18206662	0.036042944	0.00070150296	0.00022722721
0.18226355	0.032551099	0.00062919449	0.00022721505
0.18246049	0.036823936	0.00071679085	0.00022723294
0.18265744	0.037800688	0.00073443254	0.00022721505
0.18285437	0.040353574	0.00078660384	0.00022722721
0.1830513	0.045402076	0.00088645413	0.00022722721
0.18324824	0.04152381	0.00080606627	0.00022721505
0.18344517	0.045349732	0.000884793	0.00022721505
0.1836421	0.03834356	0.0007464494	0.00022721505
0.18383904	0.040384617	0.00078772858	0.00022721505
0.18403597	0.039200615	0.00076449109	0.00022721505
0.18423291	0.036937285	0.0007204198	0.00022721505
0.18442984	0.037194885	0.00072749058	0.00022722078
0.18462679	0.033358894	0.00064896914	0.00022721505
0.18482372	0.038565367	0.0007533938	0.00022721505
0.18502066	0.039200615	0.00076411961	0.00022721505
0.18521759	0.034416087	0.00067258097	0.00022721505
0.18541452	0.039891556	0.00078094465	0.00022721505
0.18561146	0.033166219	0.00064720435	0.00022721505
0.18580839	0.034309946	0.0006692147	0.00022721505
0.18600532	0.026325978	0.0005141549	0.00022720288
0.18620226	0.038028717	0.00074473192	0.00022721505
0.18639919	0.032145623	0.0006281808	0.00022722078
0.18659614	0.034108527	0.00066746509	0.00022720288
0.18679307	0.0300312	0.000588828	0.00022720288
0.18699001	0.047545418	0.0009297884	0.00022720288
0.18718694	0.040451188	0.00079334271	0.00022720288
0.18738388	0.039554533	0.00077077368	0.00022720288
0.18758081	0.043938801	0.00086614629	0.00022721505
0.18777774	0.037699185	0.00073871913	0.00022720288
0.18797468	0.036214951	0.00071043224	0.00022720288
0.18817161	0.030007794	0.00058834098	0.00022719071
0.18836854	0.040634673	0.00079527596	0.00022720861
0.18856549	0.03737215	0.00073681492	0.00022719071
0.18876243	0.040871933	0.00080181088	0.00022720288
0.18895936	0.044834308	0.00088069163	0.00022720288
0.18915629	0.036342323	0.00071426749	0.00022719071
0.18935323	0.034361579	0.00067437801	0.00022719071
0.18955016	0.029030992	0.00057037914	0.00022720288
0.1897471	0.033035368	0.00064655242	0.00022719071
0.18994403	0.047339592	0.00093189668	0.00022720288
0.19014096	0.035447028	0.00069864432	0.00022719071
0.1903379	0.052160375	0.0010243036	0.00022719646
0.19053484	0.048050415	0.00094903301	0.00022719071
0.19073178	0.039330218	0.00077150034	0.00022719071
0.19092871	0.042092841	0.00083031971	0.00022719071
0.19112565	0.048221342	0.0009539079	0.00022719071
0.19132258	0.045596261	0.00089518493	0.00022719071
0.19151951	0.049625836	0.0009801446	0.00022719071
0.19171645	0.043205027	0.0008515293	0.00022719071
0.19191338	0.037810162	0.00074594637	0.00022717856
0.19211031	0.043137256	0.00084952626	0.00022719071
0.19230725	0.038476638	0.0007578503	0.00022719646
0.1925042	0.034934498	0.00069167855	0.00022719071
0.19270113	0.033438239	0.00065887946	0.00022719071
0.19289806	0.036234736	0.00071490213	0.00022719071
0.193095	0.054054055	0.0010654494	0.00022717856
0.19329193	0.038507342	0.00076284929	0.00022719071
0.19348887	0.037579115	0.0007431116	0.00022717856
0.1936858	0.033818323	0.00066629692	0.00022717856
0.19388273	0.039857931	0.00078700366	0.00022717856
0.19407967	0.037183546	0.00073473167	0.00022717856
0.1942766	0.053009167	0.001053663	0.0002271843
0.19447355	0.041471049	0.0008159054	0.00022717856
0.19467048	0.040031709	0.00079270708	0.00022717856
0.19486742	0.041139241	0.00081306376	0.0002271664
0.19506435	0.037743345	0.00074748561	0.0002271664
0.19526128	0.027921818	0.00055296591	0.0002271664
0.19545822	0.031335682	0.00061523524	0.0002271664
0.19565515	0.045254305	0.00090079597	0.0002271664
0.19585209	0.042460319	0.00084099517	0.0002271664
0.19604902	0.037212986	0.00073602627	0.0002271664
0.19624595	0.034661356	0.00068735029	0.00022717213
0.1964429	0.038219072	0.00075332378	0.00022717856
0.19663984	0.032051284	0.00063693797	0.0002271664
0.19683677	0.04306598	0.00085160939	0.0002271664
0.1970337	0.035942491	0.00071388122	0.0002271664
0.19723064	0.040524434	0.00080284412	0.0002271664
0.19742757	0.037331216	0.00073945249	0.0002271664
0.1976245	0.037334405	0.0007435435	0.00022715423
0.19782144	0.043151226	0.00085370342	0.0002271664
0.19801837	0.036741216	0.00072924665	0.0002271664
0.19821531	0.033905067	0.00067272718	0.00022715998
0.19841225	0.031847134	0.00063076138	0.0002271664
0.19860919	0.046837471	0.00093247218	0.00022715423
0.19880612	0.036464527	0.00072154158	0.00022715423
0.19900306	0.039002813	0.00077745452	0.00022715423
0.19919999	0.047068208	0.0009350226	0.00022715423
0.19939692	0.043426294	0.00086254074	0.00022715423
0.19959386	0.041935485	0.00083733432	0.0002271664
0.19979079	0.047372613	0.00094105891	0.00022715423
0.19998772	0.043286573	0.00086230197	0.00022715423
0.20018466	0.042663477	0.000847488	0.00022715998
0.20038161	0.041817449	0.00083419104	0.00022715423
0.20057854	0.031612646	0.00062808191	0.00022715423
0.20077547	0.033559728	0.00066644221	0.00022715423
0.20097241	0.04148208	0.00082788256	0.00022715423
0.20116934	0.037939299	0.00075365324	0.00022715423
0.20136628	0.039034206	0.00077881204	0.00022714208
0.20156321	0.031224979	0.00062033907	0.00022715423
0.20176014	0.037887949	0.00075614441	0.00022714208
0.20195708	0.033626903	0.0006683484	0.00022715423
0.20215401	0.041716807	0.00083118101	0.00022715998
0.20235096	0.037857432	0.00075523095	0.00022714208
0.20254789	0.04961985	0.0009882641	0.00022714208
0.20274483	0.047464505	0.00095126237	0.00022714208
0.20294176	0.040416166	0.00080391637	0.00022714208
0.20313869	0.040420372	0.00080799876	0.00022714208
0.20333563	0.045656566	0.00091319624	0.00022714208
0.20353256	0.04380725	0.00087005121	0.00022712992
0.2037295	0.049553208	0.00099424459	0.00022712992
0.20392643	0.045254305	0.00090129516	0.00022714208
0.20412336	0.039772727	0.00079680438	0.00022714782
0.20432031	0.041515518	0.00082896295	0.00022714208
0.20451725	0.047714517	0.00095065613	0.00022714208
0.20471418	0.050365556	0.0010106286	0.00022712992
0.20491111	0.05717713	0.0011386951	0.00022714208
0.20510805	0.06135717	0.0012319421	0.00022712992
0.20530498	0.075525038	0.0015126959	0.00022712992
0.20550191	0.079486147	0.0015876212	0.00022712992
0.20569885	0.079591833	0.0016027546	0.00022712992
0.20589578	0.068163596	0.0013596938	0.00022712992
0.20609272	0.076985747	0.0015489584	0.00022713565
0.20628966	0.078597337	0.0015731798	0.00022712992
0.2064866	0.078296147	0.0015722525	0.00022711777
0.20668353	0.082113825	0.0016507898	0.00022712992
0.20688047	0.077759869	0.0015562929	0.00022712992
0.2070774	0.076175041	0.0015287453	0.00022711777
0.20727433	0.083366893	0.001668112	0.00022711777
0.20747127	0.067209773	0.0013507172	0.00022711777
0.2076682	0.060519904	0.0012147472	0.00022712992
0.20786513	0.054971706	0.0011002677	0.00022712992
0.20806207	0.055374593	0.0011126908	0.0002271235
0.20825902	0.048041984	0.00096039247	0.00022711777
0.20845595	0.045232274	0.00090870092	0.00022711777
0.20865288	0.050909091	0.0010184122	0.00022711777
0.20884982	0.045732953	0.00091966859	0.00022711777
0.20904675	0.041903988	0.00084062695	0.00022711777
0.20924369	0.039350912	0.00078797201	0.0002271056
0.20944062	0.042122316	0.00084341009	0.00022711777
0.20963755	0.036886908	0.00073808228	0.00022711777
0.20983449	0.034539472	0.00069564255	0.00022711777
0.21003142	0.038961038	0.00078026694	0.00022711133
0.21022837	0.037052117	0.0007430471	0.00022711777
0.2104253	0.038712308	0.00077689387	0.00022711777
0.21062224	0.033051189	0.00065892906	0.0002271056
0.21081917	0.035022661	0.00070616748	0.0002271056
0.2110161	0.039676115	0.0007936515	0.0002271056
0.21121304	0.036237784	0.00072650425	0.0002271056
0.21140997	0.038728088	0.00077771774	0.0002271056
0.2116069	0.034313727	0.00068903074	0.0002271056
0.21180384	0.04257061	0.00085651147	0.0002271056
0.21200077	0.037979797	0.00075898308	0.00022711133
0.21219772	0.034156378	0.00068834581	0.00022709343
0.21239465	0.033278555	0.00067018502	0.0002271056
0.21259159	0.03818034	0.0007649156	0.0002271056
0.21278852	0.035510205	0.00071266183	0.0002271056
0.21298546	0.028003247	0.00055919634	0.00022709343
0.21318239	0.034653466	0.00069878821	0.00022709343
0.21337932	0.038149349	0.00076380925	0.00022709343
0.21357626	0.042909686	0.00086236594	0.0002271056
0.21377319	0.040033016	0.00080863829	0.0002271056
0.21397012	0.035409037	0.00070904754	0.00022709918
0.21416707	0.030649776	0.00061458064	0.00022709343
0.21436401	0.029351814	0.00058804755	0.00022709343
0.21456094	0.031224322	0.00062851713	0.00022709343
0.21475787	0.036124796	0.00072733348	0.00022708128
0.21495481	0.026563138	0.00053243485	0.00022709343
0.21515174	0.03113478	0.0006252653	0.00022709343
0.21534868	0.038886614	0.00078188442	0.00022708128
0.21554561	0.037463978	0.00075528753	0.00022709343
0.21574254	0.033088237	0.00066403265	0.00022708128
0.21593948	0.029629629	0.00059641729	0.00022709918
0.21613643	0.032019705	0.00064385292	0.00022708128
0.21633336	0.029930299	0.00060120126	0.00022708128
0.21653029	0.034511093	0.00069468538	0.00022708128
0.21672723	0.033047736	0.00066301873	0.00022709343
0.21692416	0.042886596	0.00086630986	0.00022708128
0.21712109	0.033675566	0.00067779369	0.00022708128
0.21731803	0.03655031	0.00073526468	0.00022708128
0.21751496	0.044874433	0.00090574101	0.00022708128
0.2177119	0.035845213	0.00071805815	0.00022708128
0.21790883	0.029912755	0.00060451287	0.00022708702
0.21810578	0.030228758	0.00060626987	0.00022708128
0.21830271	0.033884298	0.00068389968	0.00022708128
0.21849965	0.034979425	0.00070486002	0.00022706912
0.21869658	0.034779049	0.00069920358	0.00022708128
0.21889351	0.036484245	0.00073860388	0.00022706912
0.21909045	0.039737813	0.00079953717	0.00022706912
0.21928738	0.029302517	0.0005901329	0.00022706912
0.21948431	0.036303632	0.00073255011	0.00022706912
0.21968125	0.040279489	0.00081165577	0.00022706912
0.21987818	0.036318615	0.0007330997	0.00022707487
0.22007513	0.03356529	0.00067426317	0.00022706912
0.22027206	0.029863127	0.00060336397	0.00022706912
0.220469	0.02914614	0.00058541459	0.00022706912
0.22066593	0.028559603	0.00057606911	0.00022705697
0.22086287	0.027583368	0.00055471377	0.00022705697
0.2210598	0.029254224	0.00058891211	0.00022705697
0.22125673	0.02813405	0.00056740618	0.00022705697
0.22145367	0.028099174	0.00056635129	0.00022705697
0.2216506	0.026446281	0.00053269637	0.00022706912
0.22184753	0.03292181	0.0006629611	0.00022707487
0.22204448	0.026141079	0.00052754872	0.00022705697
0.22224142	0.0330033	0.00066542451	0.00022705697
0.22243835	0.030927835	0.00062318932	0.00022705697
0.22263528	0.026119404	0.00052743347	0.00022705697
0.22283222	0.027549341	0.00055406423	0.00022704482
0.22302915	0.040383015	0.00081794464	0.00022705697
0.22322609	0.028913671	0.00058281526	0.00022704482
0.22342302	0.026304973	0.00052856345	0.00022704482
0.22361995	0.027812371	0.00056163705	0.00022705697
0.22381689	0.032204788	0.00064890191	0.0002270627
0.22401384	0.031315241	0.00063401851	0.00022704482
0.22421077	0.037448559	0.0007545441	0.00022704482
0.2244077	0.03436853	0.00069405377	0.00022704482
0.22460464	0.032875571	0.00066534046	0.00022704482
0.22480157	0.029568788	0.00059423118	0.00022704482
0.2249985	0.033123691	0.00067332608	0.00022704482
0.22519544	0.039344262	0.00079180894	0.00022704482
0.22539237	0.027858628	0.00056316674	0.00022704482
0.22558931	0.031785864	0.00064509682	0.00022704482
0.22578624	0.029423784	0.00059055892	0.00022703838
0.22598319	0.035401914	0.00071777124	0.00022703265
0.22618012	0.041752789	0.00084404624	0.00022704482
0.22637706	0.029719548	0.00060350739	0.00022704482
0.22657399	0.036883548	0.00074610824	0.00022703265
0.22677092	0.028192371	0.00056929688	0.00022703265
0.22696786	0.028192371	0.00056929688	0.00022703265
0.22716479	0.036024846	0.0007282127	0.00022704482
0.22736172	0.032622334	0.00066255918	0.00022703265
0.22755866	0.02768595	0.00055819104	0.00022703265
0.22775559	0.040117007	0.00081543287	0.00022703265
0.22795253	0.033996683	0.00068709796	0.00022703838
0.22814947	0.037375417	0.00075681118	0.00022703265
0.22834641	0.027777778	0.00056135195	0.00022703265
0.22854334	0.030743664	0.00062182831	0.0002270205
0.22874027	0.029424127	0.0005984435	0.00022703265
0.22893721	0.035493191	0.0007164097	0.00022703265
0.22913414	0.033693843	0.00068171544	0.0002270205
0.22933108	0.028239202	0.00057046505	0.0002270205
0.22952801	0.027511463	0.00055688695	0.0002270205
0.22972494	0.031653479	0.0006409575	0.0002270205
0.22992188	0.03233831	0.00065370597	0.00022703838
0.23011883	0.027895182	0.00056844711	0.0002270205
0.23031576	0.025598679	0.00051522761	0.0002270205
0.23051269	0.030378694	0.00061511545	0.0002270205
0.23070963	0.029583333	0.0005992417	0.0002270205
0.23090656	0.024875622	0.0005018044	0.00022700834
0.23110349	0.0272651	0.00055381533	0.00022700834
0.23130043	0.031289112	0.00063437119	0.0002270205
0.23149736	0.029534109	0.00059762603	0.0002270205
0.2316943	0.036758564	0.00074646255	0.0002270205
0.23189123	0.028642591	0.0005790767	0.00022701408
0.23208818	0.027661357	0.00056157622	0.00022700834
0.23228511	0.032889258	0.0006664063	0.00022700834
0.23248205	0.038445465	0.00078104477	0.00022700834
0.23267898	0.031001257	0.00062989455	0.00022700834
0.23287591	0.030340815	0.0006136141	0.00022700834
0.23307285	0.029276453	0.00059394329	0.00022700834
0.23326978	0.032527108	0.00065987976	0.00022700834
0.23346671	0.030050084	0.00060951704	0.00022700834
0.23366365	0.031118587	0.0006332394	0.00022700834
0.23386058	0.037145242	0.00075406407	0.00022701408
0.23405753	0.030553263	0.00061640254	0.00022699618
0.23425446	0.031552378	0.00064251141	0.00022700834
0.2344514	0.03397651	0.00069063407	0.00022699618
0.23464833	0.033430841	0.00067872118	0.00022699618
0.23484527	0.026755853	0.00054275215	0.00022700834
0.2350422	0.026755853	0.00054261746	0.00022700834
0.23523913	0.028139437	0.00057222258	0.00022699618
0.23543607	0.032472938	0.00065790274	0.00022699618
0.235633	0.034698997	0.00070491969	0.00022699618
0.23582993	0.033933807	0.00068986561	0.00022700192
0.23602688	0.031578947	0.0006430911	0.00022698403
0.23622382	0.039182995	0.0007954301	0.00022699618
0.23642075	0.030467445	0.00061781344	0.00022699618
0.23661768	0.035205364	0.00071616773	0.00022698403
0.23681462	0.023148147	0.00046906472	0.00022698403
0.23701155	0.031341411	0.00063561817	0.00022699618
0.23720849	0.034252297	0.00069517759	0.00022698403
0.23740542	0.032325778	0.00065770879	0.00022699618
0.23760235	0.031446543	0.00063928094	0.00022698403
0.23779929	0.033179335	0.00067480415	0.00022698977
0.23799624	0.041318864	0.00083924318	0.00022698403
0.23819317	0.043295503	0.00088285096	0.00022698403
0.2383901	0.042401344	0.00086387701	0.00022698403
0.23858704	0.036028489	0.00073278032	0.00022698403
0.23878397	0.032271583	0.00065627979	0.00022698403
0.2389809	0.041526847	0.00084506453	0.00022697187
0.23917784	0.040773433	0.00083055272	0.00022697187
0.23937477	0.032855939	0.00066980137	0.00022698403
0.23957171	0.032244556	0.0006554554	0.00022697187
0.23976864	0.032110091	0.00065102486	0.00022697762
0.23996559	0.036210526	0.00073803833	0.00022697187
0.24016252	0.028341794	0.00057840697	0.00022697187
0.24035946	0.029825309	0.00061110605	0.00022697187
0.24055639	0.033389688	0.00068156497	0.00022697187
0.24075332	0.033645656	0.00068908208	0.00022697187
0.24095026	0.033891033	0.00069663511	0.00022697187
0.24114719	0.032765958	0.00067107554	0.00022697187
0.24134412	0.036830835	0.00075739791	0.00022697187
0.24154106	0.042277824	0.00087317731	0.00022697187
0.24173799	0.041001294	0.0008471022	0.00022696547
0.24193494	0.036024306	0.00074569485	0.00022697187
0.24213187	0.040447503	0.00083386758	0.00022695972
0.24232881	0.039790116	0.0008270262	0.00022697187
0.24252574	0.034105815	0.00070803397	0.00022695972
0.24272268	0.033187773	0.00068836921	0.00022695972
0.24291961	0.027300749	0.00056806876	0.00022695972
0.24311654	0.03437772	0.00071227585	0.00022695972
0.24331348	0.033762772	0.00070646295	0.00022695972
0.24351041	0.037918869	0.00079088629	0.00022695972
0.24370734	0.032570422	0.00067694142	0.00022696547
0.24390429	0.033362988	0.00069823273	0.00022695972
0.24410123	0.033989266	0.00071371015	0.00022695972
0.24429816	0.041740675	0.00087448227	0.00022694757
0.24449509	0.030150754	0.00063877954	0.00022694757
0.24469203	0.023041476	0.00048917142	0.00022695972
0.24488896	0.023898782	0.00051115896	0.00022694757
0.2450859	0.023037141	0.00049387256	0.00022694757
0.24528283	0.029815428	0.00064245093	0.00022694757
0.24547976	0.0252742	0.00054602721	0.00022694757
0.2456767	0.03224254	0.00070106296	0.0002269533
0.24587364	0.032227032	0.00070055708	0.00022694757
0.24607058	0.036911123	0.00080699637	0.0002269354
0.24626751	0.029554263	0.00064391701	0.00022694757
0.24646445	0.024126045	0.00052953063	0.00022694757
0.24666138	0.03194103	0.00070055999	0.00022694757
0.24685831	0.027133696	0.0005969145	0.0002269354
0.24705525	0.02483855	0.00054706272	0.0002269354
0.24725218	0.020469297	0.00045131386	0.0002269354
0.24744911	0.021116139	0.00046601615	0.00022694757
0.24764605	0.026486756	0.0005853693	0.00022694115
0.247843	0.025176235	0.00055871601	0.0002269354
0.24803993	0.021472393	0.00047897894	0.0002269354
0.24823686	0.031266019	0.00070163253	0.0002269354
0.2484338	0.030549899	0.00068259425	0.00022692325
0.24863073	0.038580246	0.00086782052	0.0002269354
0.24882767	0.03292181	0.00073972839	0.00022692325
0.2490246	0.019141231	0.00042858438	0.00022692325
0.24922153	0.035005223	0.00079326786	0.00022692325
0.24941847	0.028022833	0.00063215167	0.00022692325
0.2496154	0.023721665	0.00053788204	0.000226929
0.24981235	0.02903907	0.00066066883	0.00022692965
0.25000927	0.020887729	0.000470831	0.00022692325
0.2502062	0.022399999	0.0005109497	0.0002269354
0.25040314	0.020656779	0.00046875863	0.0002269111
0.25060007	0.027041644	0.00062170584	0.0002269226
0.25079703	0.034188036	0.00078301539	0.0002269111
0.25099397	0.034927458	0.0008016731	0.0002269111
0.2511909	0.027672274	0.00063815998	0.0002269111
0.25138783	0.031771675	0.00072970765	0.0002269111
0.25158477	0.022343324	0.00051501655	0.0002269111
0.2517817	0.027292576	0.0006306392	0.0002269111
0.25197864	0.025753425	0.00059572945	0.0002269111
0.25217557	0.031024931	0.00072319672	0.0002269111
0.2523725	0.021405049	0.00049446308	0.0002269111
0.25256944	0.033351861	0.00077687524	0.0002269111
0.25276637	0.0188784	0.0004379848	0.0002269111
0.2529633	0.020100502	0.00046770577	0.0002268868
0.25316024	0.028716216	0.00067382271	0.0002269111
0.25335717	0.034110289	0.00080535805	0.0002269111
0.25355411	0.022261277	0.0005314477	0.0002269111
0.25375104	0.030084236	0.00072925445	0.0002269111
0.25394797	0.035024155	0.00085244427	0.0002268868
0.25414491	0.028255528	0.00069150631	0.0002269111
0.25434184	0.02403542	0.00059539283	0.0002269111
0.25453877	0.026041666	0.0006537927	0.0002269226
0.25473574	0.019476159	0.00049489096	0.0002268868
0.25493267	0.027929155	0.00071892719	0.0002269111
0.25512961	0.030598054	0.00079667941	0.0002269111
0.25532654	0.023420867	0.00061347312	0.0002269111
0.25552347	0.026948288	0.00071763649	0.0002268868
0.25572041	0.021969697	0.00059440394	0.0002269111
0.25591734	0.025931928	0.0007254071	0.0002269111
0.25611427	0.019776441	0.00056628167	0.0002268868
0.25631121	0.030136986	0.00089468854	0.0002268868
0.25650814	0.020735156	0.0006222325	0.0002268868
0.25670508	0.029041626	0.00088780926	0.0002268868
0.25690201	0.024312897	0.00077198388	0.0002268868
0.25709894	0.022446688	0.00072949316	0.0002268868
0.25729588	0.016528925	0.00053850253	0.0002268868
0.25749281	0.01438849	0.00047730768	0.0002268868
0.25768974	0.02264151	0.0007808783	0.0002268868
0.25788668	0.015523933	0.0005349323	0.0002268868
0.25808361	0.014686248	0.00050731684	0.0002268868
0.25828055	0.027359782	0.0009817821	0.0002268868
0.25847748	0.022889843	0.00083537906	0.00022689829
0.25867444	0.029112082	0.0010833605	0.00022686248
0.25887138	0.019877676	0.00074735674	0.00022686248
0.25906831	0.030864198	0.0011795565	0.00022686248
0.25926524	0.02852615	0.0010972456	0.0002268868
0.25946218	0.026755853	0.0010469346	0.00022686248
0.25965911	0.018675722	0.00072762551	0.0002268868
0.25985605	0.020797227	0.00082335027	0.0002268868
0.26005298	0.013888889	0.00053203537	0.00022686248
0.26024991	0.02972028	0.0012066195	0.00022686248
0.26044685	0.010714286	0.00041368208	0.0002268868
0.26064378	0.030303031	0.0012377275	0.00022686248
0.26084071	0.032374099	0.0013311148	0.00022686248
0.26103765	0.033149172	0.0013792319	0.00022686248
0.26123458	0.044444446	0.0018638382	0.00022686248
0.26143152	0.02264151	0.00093533669	0.0002268868
0.26162845	0.044362292	0.0018620705	0.00022686248
0.26182538	0.030592734	0.0012964886	0.00022686248
0.26202232	0.033268102	0.0014238883	0.00022686248
0.26221925	0.047619049	0.0020747548	0.00022686248
0.26241618	0.047801148	0.0020499283	0.00022684968
0.26261315	0.047619049	0.0020709792	0.00022683818
0.26281008	0.040650405	0.0017833642	0.00022686248
0.26300701	0.024640657	0.0010701383	0.00022686248
0.26320395	0.030181086	0.0013029701	0.00022683818
0.26340088	0.029598309	0.0013128151	0.00022686248
0.26359782	0.031380754	0.0013881058	0.00022683818
0.26379475	0.023504274	0.0010370318	0.00022686248
0.26399168	0.032051284	0.0014328653	0.00022683818
0.26418862	0.026086956	0.0011657967	0.00022683818
0.26438555	0.0246085	0.0011110188	0.00022683818
0.26458248	0.038901601	0.0018074228	0.00022683818
0.26477942	0.038116593	0.0017464937	0.00022683818
0.26497635	0.032634031	0.0015200453	0.00022686248
0.26517329	0.062937066	0.0029810539	0.00022683818
0.26537022	0.026894866	0.0012695299	0.00022683818
0.26556715	0.028846154	0.0013350195	0.00022683818
0.26576409	0.027227722	0.0012931903	0.00022683818
0.26596102	0.032828283	0.0015869695	0.00022683818
0.26615795	0.033678755	0.0016384858	0.00022683818
0.26635489	0.046035804	0.0022654352	0.00022684968
0.26655185	0.03183024	0.001571635	0.00022681388
0.26674879	0.032876711	0.0016372994	0.00022683818
0.26694572	0.016216217	0.00077062967	0.00022683818
0.26714265	0.032876711	0.001624656	0.00022681388
0.26733959	0.02259887	0.0011251317	0.00022681388
0.26753652	0.02	0.00099116028	0.00022681388
0.26773345	0.048338369	0.0025764438	0.00022683818
0.26793039	0.05074627	0.0026938065	0.00022683818
0.26812732	0.047337279	0.0024967438	0.00022683818
0.26832426	0.046875	0.0025355041	0.00022683818
0.26852119	0.034920637	0.0018618149	0.00022683818
0.26871812	0.05466238	0.0030008247	0.00022683818
0.26891506	0.028938906	0.0015496192	0.00022681388
0.26911199	0.016835017	0.0008752108	0.00022683818
0.26930892	0.016778523	0.00087080419	0.00022683818
0.26950586	0.024221454	0.0013213885	0.00022683818
0.26970279	0.027491409	0.0015100872	0.00022681388
0.26989973	0.025362318	0.0014159542	0.00022681388
0.27009666	0.026217228	0.0014882386	0.00022681388
0.27029359	0.030534351	0.0017679601	0.00022684968
0.27049056	0.036630038	0.0021070468	0.00022681388
0.27068749	0.035019454	0.0020635412	0.00022681388
0.27088442	0.0080321282	0.00036065321	0.00022681388
0.27108136	0.037656903	0.0023013351	0.00022681388
0.27127829	0.029411765	0.0017687788	0.00022681388
0.27147523	0.04964539	0.0038845574	0.00022681388
0.27167216	0.03409091	0.0029842372	0.00022681388
0.27186909	0	0	0.00022681388
0.27206603	0	0	0.00022681388
0.27226296	0	0	0.00022681388
