#   DataFileName=PAL30_110C_WAXS_08172017.tif
#   DataFileType=.tif
#   
#   DataFilePath=E:DATA:PAL30_08262017:
#   
#   Processed on=Wed, Jan 16, 2019,2:42:27 AM
#   Units=Arbitrary
#   SampleThickness=1
#   SampleTransmission=1
#   CorrectionFactor=1
#   SampleMeasurementTime=1
#   EmptyMeasurementTime=1
#   BackgroundMeasTime=1
#   SampleI0=1
#   EmptyI0=1
#   Nika_SampleToDetectorDistacne=1552.1
#   Nika_Wavelength=1.54
#   Nika_XrayEnergy=8.0509
#   Nika_PixelSizeX=0.075
#   Nika_PixelSizeY=0.075
#   Nika_HorizontalTilt=0
#   Nika_VerticalTilt=0
#   Nika_BeamCenterX=1540.3
#   Nika_BeamCenterY=830.17
#   Nika_BeamSizeX=0
#   Nika_BeamCenterY=830.17
#   CalibrationFormula=1*((Sa2D))
#   CurrentMaskFileName=PAL30_30C_WAXS_mask.hdf
#   QvectorMaxNumPnts=1
#   QvectorNumberPoints=1383
#   CircularAverage=1
#   PolarizationCorrection=None
#   UncertainityCalculationMethod=OldNikaMethod

0.0060065244	5	3.2403703	0.00022756745
0.00620346	3.6400001	0.72166473	0.00022756765
0.0064003952	2.8245614	0.37239766	0.00022756765
0.0065973303	3.075	0.34279427	0.00022756765
0.0067942655	4.734694	0.47484004	0.00022756765
0.0069912006	6.6168222	0.62488782	0.00022756745
0.0071881362	7.8196721	0.69049436	0.00022756727
0.0073850714	8.9007635	0.75651067	0.00022756727
0.0075820065	8.9034481	0.72391534	0.00022756727
0.0077789417	8.2176867	0.66389287	0.00022756745
0.0079758773	7.4177217	0.58017051	0.00022756746
0.0081728119	6.4478526	0.49696243	0.00022756707
0.0083697475	5.803371	0.42842552	0.00022756671
0.0085666822	4.8808289	0.34723604	0.00022756783
0.0087636178	4.5333333	0.32037735	0.00022756783
0.0089605534	4.0189571	0.27299133	0.00022756746
0.0091574881	3.4847162	0.22734405	0.00022756707
0.0093544237	3.0480001	0.19030915	0.00022756671
0.0095513584	2.7794676	0.16940042	0.00022756707
0.009748294	2.7242646	0.16349137	0.00022756707
0.0099452296	2.4368231	0.14487705	0.00022756595
0.010142164	2.1726618	0.12901829	0.00022756707
0.0103391	2.0404041	0.11707169	0.00022756671
0.010536035	1.7932203	0.10345908	0.00022756707
0.01073297	1.7631578	0.1001637	0.00022756783
0.010929906	1.6559485	0.092906103	0.00022756746
0.01112684	1.4696486	0.082176559	0.00022756783
0.011323776	1.3584337	0.073961623	0.00022756746
0.011520711	1.2682927	0.06947463	0.00022756707
0.011717646	1.2426035	0.066952392	0.00022756707
0.011914582	1.2660819	0.06779673	0.00022756746
0.012111517	1.0782609	0.0575261	0.00022756783
0.012308452	0.98901099	0.051406909	0.00022756671
0.012505387	1.0056497	0.052980278	0.00022756783
0.012702323	0.86507934	0.044113554	0.00022756783
0.012899258	0.83378017	0.042844515	0.00022756671
0.013096193	0.77748692	0.039460979	0.00022756707
0.013293128	0.78772378	0.039505582	0.00022756671
0.013490063	0.67783505	0.03415484	0.00022756707
0.013686999	0.71813726	0.035204191	0.00022756707
0.013883934	0.71046227	0.034777228	0.00022756671
0.014080869	0.58133972	0.028193889	0.00022756707
0.014277805	0.61647058	0.0296831	0.00022756671
0.014474739	0.57919621	0.027975321	0.0002275663
0.014671675	0.53273135	0.025129752	0.00022756707
0.014868611	0.54772729	0.025943937	0.00022756671
0.015065545	0.43076923	0.02005744	0.0002275663
0.015262481	0.45708156	0.021033198	0.00022756671
0.015459416	0.42637363	0.019851631	0.00022756595
0.01565635	0.40724948	0.018648058	0.00022756707
0.015853286	0.42675158	0.019526327	0.00022756554
0.016050221	0.40618557	0.01831083	0.00022756707
0.016247157	0.37044534	0.016585834	0.00022756707
0.016444093	0.366	0.016261885	0.00022756483
0.016641026	0.3694779	0.016465303	0.00022756707
0.016837962	0.31863728	0.014183559	0.00022756707
0.017034898	0.31517509	0.013805661	0.00022756554
0.017231833	0.35946462	0.015633307	0.00022756554
0.017428769	0.26944971	0.011676679	0.00022756483
0.017625703	0.29345796	0.012628647	0.00022756554
0.017822638	0.29050279	0.012467115	0.00022756554
0.018019574	0.27022058	0.011516849	0.00022756554
0.018216509	0.23905109	0.010139462	0.00022756554
0.018413445	0.22182469	0.0093360748	0.00022756483
0.018610379	0.24558304	0.010273573	0.00022756554
0.018807314	0.22687609	0.0094163064	0.00022756554
0.01900425	0.21837088	0.0090355249	0.00022756554
0.019201186	0.19930071	0.0082741082	0.00022756554
0.019398121	0.22948074	0.009331285	0.00022756483
0.019595055	0.21694915	0.0088735195	0.00022756554
0.019791991	0.21157025	0.0085586095	0.00022756554
0.019988926	0.17024793	0.0068764994	0.00022756554
0.020185862	0.1879085	0.0075572846	0.00022756554
0.020382797	0.19745223	0.0078402227	0.00022756483
0.020579731	0.15857606	0.0063379994	0.00022756403
0.020776667	0.19749217	0.0077809347	0.00022756403
0.020973602	0.19248827	0.007574453	0.00022756554
0.021170538	0.175	0.0068819323	0.00022756403
0.021367474	0.19457014	0.0075085978	0.0002275633
0.021564407	0.17027864	0.0066596805	0.00022756403
0.021761343	0.15844545	0.0060937731	0.00022756403
0.021958278	0.16138764	0.0062288009	0.00022756403
0.022155214	0.15418503	0.0058758738	0.00022756403
0.02235215	0.17877907	0.0067812833	0.0002275633
0.022549083	0.13950074	0.0053172056	0.00022756403
0.022746019	0.14042553	0.0052586286	0.00022756403
0.022942955	0.14347202	0.0054006386	0.00022756403
0.02313989	0.12588401	0.0047049969	0.00022756403
0.023336826	0.13389121	0.0049650511	0.0002275633
0.02353376	0.14486639	0.0053958436	0.00022756403
0.023730695	0.13161466	0.0048221606	0.00022756403
0.023927631	0.13793103	0.0050937692	0.0002275625
0.024124566	0.1313673	0.0047802404	0.00022756403
0.024321502	0.11662199	0.004238978	0.00022756179
0.024518436	0.1181208	0.0043007787	0.0002275625
0.024715371	0.13175231	0.0047547338	0.0002275625
0.024912307	0.13870542	0.0050150673	0.0002275625
0.025109243	0.10741688	0.003814698	0.0002275625
0.025306178	0.13324709	0.0047696047	0.00022756179
0.025503112	0.11494253	0.0040833531	0.0002275625
0.025700048	0.12325286	0.0043698051	0.0002275625
0.025896983	0.099236645	0.0035156123	0.0002275625
0.026093919	0.10837439	0.0037813832	0.00022756097
0.026290854	0.117866	0.0041276785	0.00022756179
0.026487788	0.11219512	0.0038957887	0.0002275625
0.026684724	0.088019557	0.0030531655	0.00022756097
0.026881659	0.11205847	0.0038886701	0.0002275625
0.027078595	0.076372318	0.0026171592	0.00022756097
0.027275531	0.085439228	0.0029423092	0.00022756179
0.027472464	0.10593714	0.0035931929	0.00022756097
0.0276694	0.10756501	0.0036772641	0.00022756097
0.027866336	0.10208817	0.003457071	0.00022756097
0.028063271	0.10813954	0.0036680668	0.00022756097
0.028260207	0.089743592	0.003042487	0.00022756026
0.028457141	0.092031427	0.0030637234	0.00022756097
0.028654076	0.082860388	0.0027687426	0.00022756097
0.028851012	0.095078297	0.0031611302	0.00022756097
0.029047947	0.083986565	0.0027922613	0.00022756097
0.029244883	0.096737906	0.0032260579	0.00022756026
0.029441817	0.089324616	0.0029286258	0.00022756097
0.029638752	0.081318684	0.0026768998	0.00022755946
0.029835688	0.084142394	0.0027454782	0.00022756097
0.030032624	0.082795702	0.0026964352	0.00022755946
0.030229559	0.085497834	0.0027931491	0.00022755875
0.030426493	0.089361705	0.0028975511	0.00022755946
0.030623429	0.084132053	0.0027273516	0.00022755946
0.030820364	0.087719299	0.0028023787	0.00022755946
0.0310173	0.076761305	0.0024714659	0.00022755946
0.031214235	0.08195021	0.0026227634	0.00022755946
0.031411171	0.084188908	0.002681657	0.00022755875
0.031608105	0.097207859	0.0031098633	0.00022755571
0.031805038	0.086956523	0.0027491956	0.00022756017
0.032001976	0.080889791	0.0025565028	0.00022755875
0.03219891	0.085427135	0.0026917115	0.00022756017
0.032395847	0.07892108	0.0024786501	0.00022755875
0.032592781	0.070506454	0.0022063525	0.00022755875
0.032789715	0.06751468	0.0020962225	0.00022756017
0.032986652	0.084729061	0.0026445684	0.00022755571
0.033183586	0.078870498	0.002445542	0.00022755713
0.033380523	0.079961464	0.0024659033	0.00022755875
0.033577457	0.07032755	0.0021684943	0.00022755571
0.033774391	0.074356534	0.0022813496	0.00022755713
0.033971328	0.073473282	0.0022543455	0.00022755571
0.034168262	0.070009463	0.0021385972	0.00022756017
0.0343652	0.069745526	0.0021272991	0.00022755571
0.034562133	0.064995356	0.0019647693	0.00022755571
0.034759067	0.065862708	0.0019919423	0.00022756017
0.034956004	0.087037034	0.0026346433	0.00022755571
0.035152938	0.085844748	0.0025794944	0.00022755713
0.035349876	0.077554747	0.0023292161	0.00022755571
0.035546809	0.088021778	0.002637624	0.00022755571
0.035743743	0.068840578	0.0020562229	0.00022755713
0.035940681	0.070852019	0.0021086398	0.00022755571
0.036137614	0.068383656	0.0020248322	0.00022755713
0.036334552	0.072824158	0.0021575922	0.00022755266
0.036531486	0.05467372	0.001610712	0.00022755266
0.036728419	0.079365082	0.0023441196	0.00022755713
0.036925357	0.089565217	0.0026286743	0.00022755571
0.037122291	0.066898346	0.001958868	0.00022755713
0.037319228	0.068457536	0.0020022986	0.00022755571
0.037516162	0.066157758	0.0019145273	0.00022755266
0.037713096	0.062553555	0.0018186212	0.00022755713
0.037910033	0.067291312	0.0019519705	0.00022755266
0.038106967	0.076335877	0.0022097845	0.00022755409
0.038303904	0.056540083	0.0016301165	0.00022755266
0.038500838	0.074875206	0.0021466459	0.00022755266
0.038697772	0.058677685	0.0016749614	0.00022755409
0.038894709	0.077814572	0.0022270796	0.00022755266
0.039091643	0.06865178	0.0019627209	0.00022755409
0.03928858	0.066393442	0.0018895516	0.00022755266
0.039485514	0.077985376	0.002211038	0.00022755266
0.039682448	0.0714866	0.0020248503	0.00022755409
0.039879385	0.061044175	0.0017184195	0.00022755266
0.040076319	0.063199997	0.0017760618	0.00022755409
0.040273257	0.068218298	0.0019214306	0.00022754962
0.04047019	0.065234683	0.0018288939	0.00022754962
0.040667124	0.069896743	0.0019591975	0.00022755409
0.040864062	0.062548868	0.0017381413	0.00022755266
0.041060995	0.076205291	0.0021147579	0.00022755409
0.041257933	0.05928237	0.0016445464	0.00022754962
0.041454867	0.073929958	0.002051607	0.00022755266
0.0416518	0.057587549	0.0015953293	0.00022755409
0.041848738	0.052671757	0.0014443087	0.00022754962
0.042045671	0.064638786	0.0017719161	0.00022754801
0.042242609	0.062357415	0.0017094665	0.00022754657
0.042439543	0.059225511	0.0016210242	0.00022754353
0.042636476	0.058602553	0.0015963071	0.00022754801
0.042833414	0.061746988	0.0016844204	0.00022754657
0.043030348	0.064973861	0.0017653304	0.00022754801
0.043227285	0.057607092	0.0015557964	0.00022754353
0.043424219	0.062638171	0.00169051	0.00022754353
0.043621153	0.059558824	0.001604862	0.00022754801
0.04381809	0.054985337	0.001478862	0.00022754353
0.044015024	0.062179957	0.0016719896	0.00022754495
0.044211961	0.065217391	0.0017457914	0.00022754353
0.044408895	0.056115109	0.001495485	0.00022754353
0.044605829	0.061781608	0.0016464064	0.00022754495
0.044802766	0.06958393	0.0018547405	0.00022754353
0.0449997	0.047822982	0.0012685489	0.00022754495
0.045196638	0.06572438	0.0017371987	0.00022754353
0.045393571	0.054609928	0.0014441296	0.00022754353
0.045590505	0.061667833	0.0016233186	0.00022754495
0.045787442	0.06171108	0.0016248145	0.00022754048
0.045984376	0.06666667	0.0017478706	0.00022754191
0.046181314	0.059680779	0.0015633422	0.00022754353
0.046378247	0.062154695	0.0016228207	0.00022754048
0.046575181	0.075276241	0.0019681267	0.00022754191
0.046772119	0.06511309	0.0016954972	0.00022754353
0.046969052	0.052416611	0.0013582205	0.00022754495
0.04716599	0.047034767	0.0012184602	0.00022754048
0.047362924	0.051212937	0.0013197004	0.00022754048
0.047559857	0.048257373	0.0012405601	0.00022754495
0.047756795	0.051040966	0.0013135188	0.00022754048
0.047953729	0.055667337	0.0014327938	0.00022754495
0.048150666	0.065693431	0.0016828543	0.00022754048
0.0483476	0.06502986	0.001665214	0.00022754048
0.048544534	0.051735427	0.0013144698	0.00022754191
0.048741471	0.055372447	0.0014124382	0.00022753744
0.048938405	0.046905536	0.0011880896	0.00022754191
0.049135342	0.055701181	0.0014151628	0.00022754048
0.049332276	0.051847052	0.0013103882	0.00022753744
0.04952921	0.055627424	0.0014048516	0.00022753887
0.049726147	0.054158606	0.0013644721	0.00022753744
0.049923081	0.055098165	0.0013764455	0.00022754191
0.050120018	0.051150896	0.0012838757	0.00022753744
0.050316952	0.043506078	0.0010909983	0.00022753744
0.050513886	0.049523808	0.001237564	0.00022753887
0.050710823	0.051363349	0.0012836281	0.00022753744
0.050907757	0.049037866	0.0012110189	0.00022753887
0.051104695	0.048719551	0.0012081394	0.00022753744
0.051301628	0.055555556	0.0013781625	0.00022753744
0.051498562	0.057428215	0.001425217	0.00022753887
0.0516955	0.055040199	0.0013571095	0.00022753744
0.051892433	0.040391676	0.00098962069	0.00022753887
0.052089371	0.054320987	0.0013398831	0.0002275344
0.052286305	0.047358833	0.0011570961	0.00022753744
0.052483238	0.058966566	0.0014447661	0.00022753583
0.052680176	0.06018237	0.0014734208	0.0002275344
0.052877109	0.043768998	0.0010700711	0.00022753887
0.053074047	0.055455092	0.0013517373	0.0002275344
0.053270981	0.052537315	0.0012737522	0.00022753744
0.053467914	0.054295942	0.0013170943	0.00022753887
0.053664852	0.047008548	0.0011517203	0.0002275344
0.053861786	0.056346748	0.0013922615	0.00022753583
0.054058723	0.044831879	0.0011095111	0.0002275344
0.054255657	0.050092764	0.0012355183	0.0002275344
0.054452591	0.066916823	0.0016636273	0.00022753583
0.054649528	0.057392389	0.0014242246	0.0002275344
0.054846462	0.05141066	0.001277879	0.00022753583
0.055043399	0.054190297	0.0013507521	0.00022753136
0.055240333	0.056854073	0.0014200313	0.0002275344
0.055437267	0.051669817	0.001287167	0.00022753583
0.055634204	0.065081351	0.0016190476	0.00022753136
0.055831138	0.041165296	0.0010258044	0.00022753279
0.056028076	0.038388923	0.00095332292	0.00022753136
0.056225009	0.04993679	0.0012456952	0.00022753136
0.056421943	0.045947671	0.0011493888	0.00022753279
0.05661888	0.043997485	0.0010932104	0.00022753136
0.056815814	0.05028284	0.0012495377	0.00022753279
0.057012752	0.050000001	0.0012474516	0.00022753136
0.057209685	0.059974749	0.0014965863	0.00022752832
0.057406619	0.053661615	0.0013383242	0.00022753279
0.057603557	0.053063802	0.0013236806	0.00022753136
0.05780049	0.036708862	0.00091414194	0.00022753279
0.057997428	0.044597991	0.0011061688	0.00022752832
0.058194362	0.058712121	0.0014639295	0.00022752832
0.058391295	0.051800378	0.0012914639	0.00022752974
0.058588233	0.040726818	0.0010099425	0.00022752832
0.058785167	0.039240506	0.00097562582	0.00022752974
0.058982104	0.041483343	0.0010295364	0.00022752832
0.059179038	0.038316581	0.000949846	0.00022752832
0.059375972	0.049716804	0.0012368662	0.00022752974
0.059572909	0.053258147	0.0013219528	0.00022752528
0.059769843	0.050409578	0.0012558615	0.00022752974
0.05996678	0.042131349	0.0010385424	0.00022752528
0.060163714	0.047889099	0.001191625	0.00022752528
0.060360648	0.061097257	0.0015119544	0.00022752974
0.060557585	0.049467754	0.0012273819	0.00022752528
0.060754519	0.049782202	0.0012317022	0.0002275267
0.060951456	0.059925094	0.0014859128	0.00022752528
0.06114839	0.051026758	0.0012622529	0.00022752528
0.061345324	0.035491906	0.00087507762	0.0002275267
0.061542261	0.049068324	0.0012117518	0.00022752528
0.061739195	0.049129352	0.0012148065	0.0002275267
0.061936133	0.053316802	0.0013174944	0.00022752528
0.062133066	0.052599009	0.0012982134	0.00022752528
0.06233	0.043692309	0.00107329	0.00022752528
0.062526934	0.042027194	0.0010353775	0.0002275251
0.062723875	0.039702233	0.00097921013	0.00022751919
0.062920809	0.046855733	0.0011534594	0.00022752528
0.063117743	0.041537508	0.001024491	0.00022751919
0.063314676	0.042227663	0.0010344923	0.00022751919
0.06351161	0.047648136	0.0011679124	0.00022752814
0.063708551	0.043531574	0.0010682357	0.00022751919
0.063905485	0.050679851	0.0012512893	0.00022751919
0.064102419	0.053048782	0.0013000043	0.00022751919
0.064299352	0.060624618	0.0014906201	0.00022752528
0.064496286	0.042708971	0.0010450955	0.00022752205
0.064693227	0.046172541	0.0011275233	0.00022751919
0.064890161	0.053333335	0.0013029873	0.00022751919
0.065087095	0.045204643	0.0011071552	0.00022752528
0.065284029	0.045815516	0.0011225004	0.00022752528
0.065480962	0.052663438	0.0012867253	0.00022752205
0.065677904	0.052948255	0.0012892364	0.00022752528
0.065874837	0.049606774	0.0012108365	0.00022751919
0.066071771	0.050571945	0.001231881	0.00022751919
0.066268705	0.044135429	0.0010754219	0.00022751919
0.066465639	0.049969897	0.0012167215	0.00022752205
0.06666258	0.040718563	0.00098564522	0.00022751919
0.066859514	0.053906724	0.0013167477	0.00022751919
0.067056447	0.054696791	0.0013247359	0.00022751919
0.067253381	0.047220562	0.0011452476	0.00022751919
0.067450315	0.062163778	0.0015109596	0.00022751596
0.067647256	0.053892214	0.0013096812	0.00022751919
0.06784419	0.056354918	0.001370708	0.00022751919
0.068041123	0.044378698	0.0010706834	0.00022751311
0.068238057	0.053349141	0.0012889609	0.00022751311
0.068434991	0.045157459	0.0010920776	0.00022752205
0.068631932	0.047281325	0.0011409512	0.00022751311
0.068828866	0.049641147	0.0012054424	0.00022751311
0.0690258	0.051431913	0.0012340802	0.00022751311
0.069222733	0.041912634	0.0010083738	0.00022751311
0.069419667	0.050236408	0.0012127403	0.00022751596
0.069616608	0.048651818	0.0011692347	0.00022751311
0.069813542	0.044039931	0.0010582532	0.00022751311
0.070010476	0.04475854	0.0010778254	0.00022751311
0.07020741	0.052569404	0.001268207	0.00022751311
0.070404343	0.044482958	0.0010610541	0.00022752205
0.070601285	0.047869235	0.0011484616	0.00022751311
0.070798218	0.038349796	0.00091595086	0.00022751311
0.070995152	0.038709678	0.0009286594	0.00022751311
0.071192086	0.033274956	0.00079536723	0.00022751311
0.071389019	0.043153051	0.0010271843	0.00022751596
0.071585961	0.044083528	0.0010535306	0.00022750701
0.071782894	0.035260115	0.00083962205	0.00022751311
0.071979828	0.038305283	0.00091435621	0.00022751311
0.072176762	0.042651296	0.0010159907	0.00022751311
0.072373696	0.046991404	0.00111701	0.00022751596
0.072570637	0.04057971	0.00096750527	0.00022751311
0.072767571	0.042069357	0.000994895	0.00022750701
0.072964504	0.044560187	0.0010636366	0.00022750701
0.073161438	0.037478704	0.00088512205	0.00022751311
0.073358372	0.041189931	0.00097726437	0.00022750988
0.073555313	0.039170507	0.00093201757	0.00022750701
0.073752247	0.044657998	0.0010541392	0.00022751311
0.073949181	0.042237442	0.001001608	0.00022750701
0.074146114	0.031126203	0.0007336688	0.00022751311
0.074343048	0.041642897	0.00098654442	0.00022750988
0.074539989	0.038614422	0.00091163465	0.00022750701
0.074736923	0.041363891	0.0009703305	0.00022750701
0.074933857	0.042686399	0.0010112944	0.00022750701
0.07513079	0.051801801	0.0012219714	0.00022750701
0.075327724	0.041103605	0.00096780801	0.0002275038
0.075524665	0.050140847	0.0011817868	0.00022750701
0.075721599	0.036748331	0.00085856597	0.00022750093
0.075918533	0.04617117	0.0010865722	0.00022750701
0.076115467	0.046446558	0.0010915947	0.00022750701
0.0763124	0.046901174	0.0011003549	0.00022750988
0.076509342	0.043381535	0.0010154293	0.00022750701
0.076706275	0.048306495	0.0011303669	0.00022750701
0.076903209	0.042040359	0.00098788401	0.00022750701
0.077100143	0.043526173	0.0010141473	0.00022750093
0.077297077	0.035476718	0.00082812249	0.0002275038
0.077494018	0.046718575	0.0010939341	0.00022750093
0.077690952	0.037932929	0.00088167313	0.00022750093
0.077887885	0.04345404	0.0010184862	0.00022750093
0.078084819	0.043572985	0.001009846	0.00022750093
0.078281753	0.039625756	0.00092302315	0.0002275038
0.078478694	0.044028617	0.0010252419	0.00022750093
0.078675628	0.034407429	0.00079627102	0.00022750093
0.078872561	0.045203969	0.001053717	0.00022750093
0.079069495	0.04359673	0.0010098703	0.00022750093
0.079266429	0.043644298	0.001012166	0.0002275038
0.07946337	0.044165757	0.0010239296	0.00022750093
0.079660304	0.045429964	0.0010494321	0.00022750093
0.079857238	0.053522665	0.001243186	0.00022750093
0.080054171	0.050838292	0.0011752214	0.00022750093
0.080251105	0.036512263	0.00084486062	0.0002275038
0.080448046	0.043126684	0.00099326379	0.00022749485
0.08064498	0.040685225	0.00093423127	0.00022750093
0.080841914	0.040108401	0.00092665385	0.00022750093
0.081038848	0.039699569	0.00091218058	0.00022749485
0.081235781	0.039502166	0.00091144448	0.00022749772
0.081432723	0.042689435	0.00097928115	0.00022749485
0.081629656	0.038400002	0.00087965798	0.00022749485
0.08182659	0.046063203	0.0010596934	0.00022749485
0.082023524	0.049494412	0.0011350245	0.00022749485
0.082220457	0.033671834	0.00077205646	0.00022749772
0.082417399	0.053333335	0.0012249666	0.00022749485
0.082614332	0.048962213	0.001122599	0.00022749485
0.082811266	0.041423261	0.00094791781	0.00022749485
0.0830082	0.057894737	0.0013205066	0.00022749485
0.083205134	0.053911205	0.0012317379	0.00022749163
0.083402075	0.043317486	0.00098858622	0.00022749485
0.083599009	0.054284193	0.001245272	0.00022749485
0.083795942	0.048268624	0.0010984312	0.00022748877
0.083992876	0.042954426	0.00097603421	0.00022749485
0.08418981	0.050261781	0.0011431003	0.00022749772
0.084386751	0.037153322	0.00084377371	0.00022748877
0.084583685	0.047569264	0.0010807003	0.00022749485
0.084780619	0.040083289	0.00090803549	0.00022749485
0.084977552	0.041753653	0.0009475532	0.00022748877
0.085174486	0.0336091	0.0007579854	0.00022749163
0.085371427	0.043681748	0.00098872138	0.00022748877
0.085568361	0.043746784	0.00098560657	0.00022748877
0.085765295	0.034465022	0.00077479734	0.00022748877
0.085962228	0.043274242	0.00098123995	0.00022748877
0.086159162	0.044284243	0.00099834451	0.00022748555
0.086356103	0.037206933	0.00083427114	0.00022748877
0.086553037	0.053901438	0.0012146225	0.00022748877
0.086749971	0.0380904	0.00085226563	0.00022748877
0.086946905	0.033436213	0.0007514187	0.00022748268
0.087143838	0.041054234	0.00091749337	0.00022749163
0.08734078	0.0418154	0.00093760539	0.00022748877
0.087537713	0.037487336	0.00083730504	0.00022748268
0.087734647	0.036418818	0.00081277452	0.00022748877
0.087931581	0.035569105	0.00079525448	0.00022748877
0.088128515	0.037669513	0.00083817646	0.00022748555
0.088325456	0.040281974	0.00089746492	0.00022748268
0.08852239	0.045569621	0.001018923	0.00022748268
0.088719323	0.046929605	0.0010414681	0.00022748268
0.088916257	0.045591183	0.0010141105	0.00022748268
0.089113191	0.04145854	0.00092066784	0.00022748555
0.089310132	0.046453547	0.0010316671	0.00022748268
0.089507066	0.037848607	0.00083823549	0.00022748268
0.089703999	0.035714287	0.00078837137	0.00022748268
0.089900933	0.0385	0.00085446768	0.00022748268
0.090097867	0.0427939	0.00094310718	0.00022747947
0.090294808	0.039381854	0.0008727868	0.00022748268
0.090491742	0.038480513	0.00084828137	0.00022748268
0.090688676	0.036579337	0.00080721366	0.00022748268
0.090885609	0.033563673	0.00073970453	0.0002274766
0.091082543	0.048744462	0.0010758427	0.00022748268
0.091279477	0.043777667	0.0009650719	0.00022748555
0.091476418	0.042302016	0.00093205849	0.0002274766
0.091673352	0.037109375	0.00081379415	0.00022748268
0.091870286	0.036818851	0.00080920989	0.0002274766
0.092067219	0.046523016	0.0010232026	0.0002274766
0.092264153	0.039435249	0.00086388463	0.00022747947
0.092461094	0.048292682	0.0010601516	0.0002274766
0.092658028	0.039608803	0.00086986378	0.0002274766
0.092854962	0.030962748	0.00067535369	0.0002274766
0.093051895	0.039632674	0.00086593017	0.0002274766
0.093248829	0.051481303	0.0011285403	0.00022747337
0.09344577	0.046882551	0.0010246265	0.0002274766
0.093642704	0.038872693	0.00085117918	0.00022747052
0.093839638	0.037126325	0.00080955564	0.0002274766
0.094036572	0.029341029	0.00063748378	0.0002274766
0.094233505	0.045279384	0.00098791812	0.00022747947
0.094430447	0.034482758	0.00074867503	0.00022747052
0.09462738	0.044444446	0.000971539	0.00022747052
0.094824314	0.048780486	0.0010612622	0.00022747052
0.095021248	0.036859743	0.00080071337	0.00022747052
0.095218182	0.038077105	0.00082517829	0.00022747337
0.095415123	0.038700432	0.00084010762	0.00022747052
0.095612057	0.041924726	0.0009096174	0.00022747052
0.09580899	0.033285782	0.00072050671	0.00022747052
0.096005924	0.040669855	0.00088370522	0.00022747052
0.096202858	0.036036037	0.00077901216	0.00022747337
0.096399799	0.04208038	0.00090925349	0.00022747052
0.096596733	0.034807149	0.00074939837	0.00022746444
0.096793666	0.0415879	0.00089844089	0.00022747052
0.0969906	0.0415879	0.00089820579	0.00022746444
0.097187534	0.040527806	0.00087391096	0.00022747337
0.097384475	0.04109589	0.00088717055	0.00022746444
0.097581409	0.039943609	0.00086025754	0.00022747052
0.097778343	0.047929268	0.0010283339	0.00022746444
0.097975276	0.045647059	0.00098427944	0.00022746444
0.09817221	0.048507463	0.0010419197	0.00022746729
0.098369151	0.051390853	0.0011096842	0.00022746444
0.098566085	0.037517369	0.00080175092	0.00022746444
0.098763019	0.034660421	0.00074438786	0.00022746444
0.098959953	0.04255319	0.00090963696	0.00022746444
0.099156886	0.038337182	0.00081733509	0.00022746121
0.099353828	0.043417368	0.00093217922	0.00022746444
0.099550761	0.046933085	0.0010059301	0.00022745834
0.099747695	0.039649609	0.00084530801	0.00022745834
0.099944629	0.048566144	0.0010386051	0.00022745834
0.10014156	0.040919539	0.00087110314	0.00022746121
0.1003385	0.039224736	0.00083607773	0.00022745834
0.10053544	0.038532112	0.00081935059	0.00022746444
0.10073237	0.044144981	0.00094585627	0.00022745834
0.1009293	0.03391384	0.00072006206	0.00022746444
0.10112624	0.039545454	0.00083777035	0.00022746121
0.10132318	0.044117648	0.00093949266	0.00022746444
0.10152011	0.048614267	0.0010304219	0.00022745834
0.10171705	0.041152265	0.00087461487	0.00022745834
0.10191398	0.040109389	0.00085106201	0.00022745834
0.10211091	0.048423938	0.0010296861	0.00022746121
0.10230786	0.035925422	0.0007604264	0.00022745834
0.10250479	0.032097649	0.0006772498	0.00022745226
0.10270172	0.032432433	0.00068276038	0.00022745226
0.10289866	0.038724374	0.00082128128	0.00022745226
0.10309559	0.034296028	0.00072339555	0.00022745512
0.10329253	0.033091567	0.00069893803	0.00022745226
0.10348947	0.035426009	0.00074389559	0.00022745834
0.1036864	0.03918919	0.00082680484	0.00022745226
0.10388333	0.031404216	0.00066000305	0.00022745226
0.10408027	0.036887091	0.00077727775	0.00022746121
0.10427721	0.041704036	0.00087784912	0.00022745226
0.10447414	0.031404216	0.00066013989	0.00022745226
0.10467108	0.042780749	0.00089779799	0.00022745226
0.10486801	0.047384892	0.00099662854	0.00022745226
0.10506494	0.044345897	0.00092853635	0.00022745512
0.10526188	0.036971048	0.00077494537	0.00022745226
0.10545882	0.041181736	0.00086580421	0.00022744617
0.10565575	0.03544528	0.00074075715	0.00022745226
0.10585269	0.047513321	0.00099631608	0.00022745226
0.10604962	0.043286219	0.0009044169	0.00022745512
0.10624656	0.053982303	0.0011301166	0.00022744617
0.10644349	0.055163283	0.0011539198	0.00022744617
0.10664043	0.049757816	0.0010394778	0.00022745226
0.10683736	0.051304732	0.0010735743	0.00022744617
0.1070343	0.055897888	0.0011679046	0.00022744904
0.10723124	0.067337126	0.001402895	0.00022744617
0.10742817	0.064317182	0.0013451593	0.00022744617
0.1076251	0.064208239	0.0013319801	0.00022744617
0.10782204	0.069010988	0.0014417995	0.00022744617
0.10801897	0.06821163	0.001421197	0.00022744904
0.10821591	0.061706785	0.0012855442	0.00022744617
0.10841285	0.075414121	0.0015694887	0.00022744617
0.10860978	0.060579836	0.0012548971	0.00022744009
0.10880671	0.05882353	0.0012268162	0.00022744009
0.10900365	0.065170482	0.0013488106	0.00022744904
0.10920059	0.065283179	0.0013522517	0.00022744009
0.10939752	0.058134489	0.0012055916	0.00022744009
0.10959446	0.056155507	0.0011623222	0.00022744009
0.10979139	0.056472633	0.0011719737	0.00022744009
0.10998832	0.051864553	0.0010690421	0.00022744296
0.11018527	0.057783529	0.0011954276	0.00022744009
0.1103822	0.056010339	0.0011576102	0.00022744009
0.11057913	0.060944207	0.0012573147	0.00022743401
0.11077607	0.054647159	0.0011288503	0.00022744009
0.110973	0.058773424	0.0012081347	0.00022743687
0.11116994	0.059427105	0.0012242814	0.00022743401
0.11136688	0.055674519	0.0011473503	0.00022743401
0.11156381	0.056997024	0.0011709032	0.00022743401
0.11176074	0.052564103	0.0010820013	0.00022743401
0.11195768	0.056827821	0.001165627	0.00022744296
0.11215462	0.058144506	0.0011976177	0.00022743401
0.11235155	0.065365024	0.0013417101	0.00022743401
0.11254849	0.051920641	0.001062404	0.00022743401
0.11274542	0.057578325	0.0011801652	0.00022743401
0.11294235	0.053457785	0.0010961993	0.00022743687
0.11313929	0.050359711	0.0010313218	0.00022743401
0.11333623	0.062526226	0.0012761232	0.00022743401
0.11353316	0.061733615	0.0012649765	0.00022742792
0.1137301	0.05882353	0.0012011474	0.00022743401
0.11392703	0.07029289	0.0014332471	0.00022743079
0.11412397	0.06383872	0.0013038568	0.00022742792
0.1143209	0.065994114	0.0013483383	0.00022742792
0.11451784	0.068229385	0.0013910882	0.00022742792
0.11471477	0.068820812	0.0014054757	0.00022742792
0.11491171	0.072908036	0.0014796078	0.00022743079
0.11510865	0.070951588	0.0014451313	0.00022742792
0.11530558	0.085761867	0.0017454098	0.00022742792
0.11550251	0.077791721	0.0015863063	0.00022742792
0.11569945	0.089929551	0.0018259084	0.00022742792
0.11589638	0.095159285	0.001931078	0.00022743079
0.11609332	0.099214554	0.0020128167	0.00022742792
0.11629026	0.10554636	0.0021427779	0.00022742792
0.11648719	0.094667219	0.0019204206	0.00022742184
0.11668412	0.13625103	0.0027639573	0.00022742184
0.11688106	0.15658657	0.0031823074	0.00022742471
0.117078	0.23190789	0.0046976912	0.00022742184
0.11727493	0.36430618	0.0073654847	0.00022742184
0.11747187	0.59803522	0.012093621	0.00022742184
0.1176688	1.0205002	0.020656394	0.00022742184
0.11786573	1.7099835	0.034722093	0.00022742471
0.11806267	2.7260106	0.05507277	0.00022742184
0.11825961	4.3084803	0.087189019	0.00022742184
0.11845654	6.1175995	0.12317252	0.00022742184
0.11865348	7.9784288	0.16093437	0.00022742184
0.11885041	9.7074966	0.19645689	0.00022741863
0.11904735	10.989879	0.22110379	0.00022741576
0.11924428	12.113507	0.24430841	0.00022741576
0.11944122	12.308252	0.2475362	0.00022741576
0.11963815	11.986596	0.24155915	0.00022741576
0.11983509	11.522298	0.2309415	0.00022741863
0.12003203	10.581987	0.21265221	0.00022741576
0.12022896	9.5449009	0.1923952	0.00022741576
0.12042589	8.473279	0.1704805	0.00022741576
0.12062283	7.5571141	0.15128055	0.00022741576
0.12081976	6.492178	0.13000871	0.00022741863
0.1210167	5.7523999	0.11502769	0.00022741576
0.12121364	4.8154283	0.096752129	0.00022740968
0.12141057	4.1057882	0.082010746	0.00022740968
0.1216075	3.3578019	0.067229688	0.00022741576
0.12180444	2.6592357	0.053040188	0.00022741254
0.12200138	1.9657234	0.039229877	0.00022740968
0.12219831	1.432508	0.028617011	0.00022741576
0.12239525	0.98138613	0.019522505	0.00022741576
0.12259218	0.69996005	0.013985145	0.00022740968
0.12278911	0.53481895	0.010663277	0.00022741254
0.12298606	0.42613184	0.0084875375	0.00022740968
0.12318299	0.34837687	0.0069270479	0.00022740968
0.12337992	0.30992547	0.0061340202	0.00022740968
0.12357686	0.30583102	0.0060867169	0.00022740968
0.12377379	0.26076651	0.0051787556	0.00022740646
0.12397073	0.25819185	0.0051255813	0.00022740968
0.12416767	0.25530243	0.0050552888	0.00022740359
0.1243646	0.22688088	0.004486768	0.00022740359
0.12456153	0.22042587	0.0043726158	0.00022740359
0.12475847	0.21003135	0.0041532982	0.00022740646
0.12495541	0.19205037	0.0038056634	0.00022739463
0.12515233	0.17279124	0.0034120835	0.00022740323
0.12534928	0.18372908	0.003620849	0.00022739751
0.12554622	0.17403206	0.003437561	0.00022739751
0.12574315	0.16167897	0.0031829835	0.00022739751
0.12594008	0.15709262	0.0031012394	0.00022739751
0.12613702	0.14224641	0.0028001731	0.00022740968
0.12633395	0.14385965	0.0028361601	0.00022740968
0.12653089	0.13323006	0.0026180199	0.00022739751
0.12672782	0.14103554	0.0027683033	0.00022739751
0.12692475	0.12422118	0.0024469756	0.00022739751
0.12712169	0.12557428	0.0024530855	0.00022740323
0.12731864	0.1263608	0.0024876723	0.00022739751
0.12751557	0.11696807	0.0022901921	0.00022739751
0.1277125	0.13923077	0.0027261216	0.00022739751
0.12790944	0.12282734	0.0024096167	0.00022739751
0.12810637	0.11918493	0.0023327342	0.00022739751
0.1283033	0.11307015	0.0022095637	0.00022739751
0.12850024	0.1077041	0.002104477	0.00022739751
0.12869717	0.11128107	0.0021721111	0.00022738535
0.12889411	0.1129466	0.0022098031	0.00022739751
0.12909104	0.10650437	0.0020732684	0.00022740323
0.12928799	0.11004601	0.0021507882	0.00022739751
0.12948492	0.10913225	0.0021201724	0.00022739751
0.12968186	0.10278945	0.002004924	0.00022738535
0.12987879	0.10015232	0.0019504019	0.00022738535
0.13007572	0.086643964	0.0016813064	0.00022738535
0.13027266	0.090182647	0.001755171	0.00022738535
0.13046959	0.092214666	0.001788626	0.00022738535
0.13066652	0.10428517	0.0020266562	0.00022738535
0.13086346	0.081663519	0.0015837058	0.00022739751
0.13106039	0.09152288	0.0017685938	0.00022740323
0.13125734	0.085931562	0.001671566	0.00022738535
0.13145427	0.085274227	0.0016488939	0.00022738535
0.13165121	0.090018831	0.0017430282	0.00022738535
0.13184814	0.081678532	0.001577138	0.00022738535
0.13204508	0.085146286	0.0016449271	0.00022738535
0.13224201	0.077416919	0.0015005182	0.00022738535
0.13243894	0.078101642	0.0015057641	0.00022738535
0.13263588	0.071162447	0.0013697617	0.00022738535
0.13283281	0.081151836	0.0015656139	0.00022738535
0.13302974	0.074101798	0.0014296719	0.00022739106
0.13322669	0.079850748	0.0015386579	0.00022738535
0.13342363	0.078576721	0.0015089716	0.00022738535
0.13362056	0.076865949	0.0014771367	0.00022738535
0.13381749	0.075288855	0.0014497571	0.00022737318
0.13401443	0.074776784	0.0014381047	0.00022737318
0.13421136	0.074953616	0.0014397643	0.00022738535
0.1344083	0.076639645	0.0014673058	0.00022737318
0.13460523	0.063562453	0.0012181981	0.00022737318
0.13480216	0.069888473	0.0013435133	0.00022737318
0.1349991	0.065185182	0.0012507866	0.0002273789
0.13519605	0.063480482	0.00120872	0.00022737318
0.13539298	0.074416883	0.001428089	0.00022737318
0.13558991	0.068131872	0.0013002108	0.00022737318
0.13578685	0.076442488	0.0014612729	0.00022737318
0.13598378	0.069937751	0.0013343291	0.00022737318
0.13618071	0.070692196	0.0013527648	0.00022737318
0.13637765	0.078359574	0.0014955244	0.00022737318
0.13657458	0.074168801	0.0014138396	0.00022737318
0.13677152	0.065962099	0.0012555438	0.00022737318
0.13696845	0.064680234	0.0012292812	0.00022737318
0.13716538	0.055494707	0.0010565118	0.0002273789
0.13736233	0.063666299	0.0012141933	0.00022737318
0.13755926	0.059971098	0.0011360237	0.00022737318
0.1377562	0.066642389	0.0012679258	0.00022737318
0.13795313	0.063497826	0.0012056216	0.00022736102
0.13815007	0.059588298	0.0011289158	0.00022736102
0.138347	0.060551126	0.0011494081	0.00022737318
0.13854393	0.064028777	0.0012106386	0.00022737318
0.13874087	0.051636364	0.00098068558	0.00022736102
0.1389378	0.057761732	0.0010938217	0.00022736102
0.13913473	0.060551774	0.0011426108	0.00022736673
0.13933168	0.060028758	0.0011344419	0.00022737318
0.13952862	0.058168761	0.0010986956	0.00022737318
0.13972555	0.055595931	0.001056056	0.00022736102
0.13992248	0.066286527	0.0012476675	0.00022736102
0.14011942	0.072785944	0.0013743447	0.00022736102
0.14031635	0.068311878	0.0012881008	0.00022737318
0.14051329	0.05244381	0.0009868592	0.00022736102
0.14071022	0.059203446	0.0011177474	0.00022736102
0.14090715	0.05882353	0.0011037303	0.00022736102
0.14110409	0.055694394	0.0010488859	0.00022736673
0.14130104	0.05575411	0.0010503561	0.00022736102
0.14149797	0.049964566	0.00093695114	0.00022736102
0.1416949	0.050372474	0.00094518007	0.00022734885
0.14189184	0.048056535	0.00089984515	0.00022736102
0.14208877	0.058571428	0.0011033003	0.00022736102
0.1422857	0.059198864	0.0011109953	0.00022736102
0.14248264	0.05089505	0.00094998232	0.00022736102
0.14267957	0.05283688	0.00099122257	0.00022736102
0.14287651	0.046748683	0.00087265769	0.00022736102
0.14307344	0.050247699	0.00094129343	0.00022735457
0.14327039	0.049543217	0.00092507596	0.00022736102
0.14346732	0.057705842	0.0010791325	0.00022734885
0.14366426	0.053001054	0.00098937436	0.00022734885
0.14386119	0.052650053	0.00098279398	0.00022736102
0.14405812	0.047635727	0.00088800199	0.00022734885
0.14425506	0.047785141	0.00088899786	0.00022734885
0.14445199	0.047702562	0.00088987162	0.00022734885
0.14464892	0.047034048	0.00087764877	0.00022734885
0.14484586	0.051442474	0.00095559855	0.00022734885
0.14504279	0.056136679	0.0010446662	0.00022735457
0.14523974	0.049067035	0.00090876332	0.00022734885
0.14543667	0.045948789	0.00085372507	0.00022733668
0.14563361	0.05484207	0.0010155567	0.00022734885
0.14583054	0.048661802	0.00090074487	0.00022734885
0.14602748	0.051539261	0.00095223665	0.00022734885
0.14622441	0.043267567	0.00080148509	0.00022733668
0.14642134	0.05114029	0.00094718987	0.00022734885
0.14661828	0.048209365	0.00089105737	0.00022733668
0.14681521	0.050606586	0.00093866739	0.00022733668
0.14701214	0.048292514	0.00089340983	0.0002273424
0.14720909	0.050292801	0.00093016954	0.00022733668
0.14740603	0.04619097	0.00085415458	0.00022733668
0.14760296	0.051771116	0.00095225999	0.00022733668
0.14779989	0.048225973	0.00089156372	0.00022733668
0.14799683	0.039614193	0.0007316565	0.00022733668
0.14819376	0.045329671	0.00083663157	0.00022733668
0.1483907	0.048613489	0.00089614611	0.00022733668
0.14858763	0.047991831	0.00088205101	0.00022733668
0.14878456	0.051528685	0.00095143222	0.00022733668
0.1489815	0.051864408	0.00095148647	0.0002273424
0.14917845	0.054855198	0.0010090957	0.00022733668
0.14937538	0.052182809	0.00096013886	0.00022733668
0.14957231	0.048086692	0.00088161748	0.00022733668
0.14976925	0.05308219	0.00097903656	0.00022733668
0.14996618	0.055948772	0.0010238825	0.00022733668
0.15016311	0.043389831	0.0007958308	0.00022732452
0.15036005	0.052703161	0.00096864923	0.00022732452
0.15055698	0.051886793	0.00094899099	0.00022733668
0.15075392	0.053025153	0.00097418245	0.00022733668
0.15095085	0.050318684	0.00091518869	0.00022733024
0.1511478	0.044796228	0.00081570342	0.00022732452
0.15134473	0.050050728	0.00091420469	0.00022733668
0.15154167	0.044280443	0.00080784282	0.00022732452
0.1517386	0.041244082	0.00075494149	0.00022732452
0.15193553	0.039182853	0.00071373308	0.00022732452
0.15213247	0.043361343	0.00079159951	0.00022733668
0.1523294	0.045591686	0.00083150266	0.00022732452
0.15252633	0.050983004	0.00092721253	0.00022732452
0.15272327	0.051856808	0.00094513001	0.00022732452
0.1529202	0.051718384	0.00094138726	0.00022733024
0.15311715	0.048289739	0.00088120362	0.00022732452
0.15331408	0.046527084	0.00084482098	0.00022732452
0.15351102	0.047207449	0.00085750286	0.00022732452
0.15370795	0.04326123	0.00078584859	0.00022731235
0.15390489	0.055241264	0.0010042636	0.00022732452
0.15410182	0.045980815	0.00083311135	0.00022732452
0.15429875	0.043189369	0.00078389113	0.00022732452
0.15449569	0.045152724	0.00081956614	0.00022731235
0.15469262	0.040701523	0.00073730439	0.00022731235
0.15488955	0.044466402	0.00080384081	0.00022731809
0.1550865	0.044137023	0.00079781475	0.00022732452
0.15528344	0.046388336	0.00084104436	0.00022731235
0.15548037	0.045048028	0.00081649446	0.00022731235
0.1556773	0.043606557	0.00078643166	0.00022731235
0.15587424	0.039209224	0.00070843572	0.00022731235
0.15607117	0.042754568	0.00076911261	0.00022731235
0.1562681	0.044840094	0.00081106817	0.00022731235
0.15646504	0.041064389	0.00074109517	0.00022732452
0.15666197	0.048397645	0.00087189587	0.00022731235
0.15685891	0.039228506	0.00070588035	0.00022731809
0.15705585	0.042088091	0.00075689476	0.00022731235
0.15725279	0.039620169	0.00071379141	0.00022731235
0.15744972	0.04453836	0.00079976855	0.00022731235
0.15764666	0.049153645	0.00088341744	0.00022731235
0.15784359	0.041639343	0.00075041427	0.00022731235
0.15804052	0.038261998	0.00068562478	0.00022731235
0.15823746	0.0400782	0.00071975775	0.00022731235
0.15843439	0.034771409	0.00062052277	0.00022731235
0.15863132	0.039883267	0.00071494188	0.00022730019
0.15882826	0.036807816	0.00066079217	0.00022731809
0.15902521	0.042340014	0.00075804145	0.00022730019
0.15922214	0.041464206	0.0007430276	0.00022730019
0.15941907	0.041051958	0.0007315671	0.00022731235
0.15961601	0.039818712	0.0007128733	0.00022730019
0.15981294	0.037990984	0.00067815557	0.00022730019
0.16000988	0.041532516	0.0007416408	0.00022730019
0.16020681	0.034460548	0.00061509066	0.00022730019
0.16040374	0.039756332	0.00070835982	0.00022730019
0.16060068	0.045132171	0.00080661231	0.00022730019
0.16079761	0.046570972	0.00082829164	0.00022730592
0.16099456	0.044338118	0.00078836858	0.00022730019
0.16119149	0.041197296	0.0007357733	0.00022730019
0.16138843	0.039334826	0.00069977675	0.00022730019
0.16158536	0.039730854	0.0007076789	0.00022730019
0.16178229	0.034953926	0.00061972416	0.00022728802
0.16197923	0.033184428	0.00058945449	0.00022728802
0.16217616	0.036872219	0.00065410946	0.00022728802
0.1623731	0.037886024	0.00067210663	0.00022728802
0.16257003	0.039352585	0.00069764128	0.00022728802
0.16276696	0.032083862	0.00056829618	0.00022730592
0.16296391	0.03780178	0.00067029649	0.00022728802
0.16316085	0.038595382	0.00068292714	0.00022730019
0.16335778	0.041758936	0.0007390111	0.00022728802
0.16355471	0.040340371	0.0007125386	0.00022728802
0.16375165	0.038734667	0.00069249456	0.00022728802
0.16394858	0.037279267	0.00067055429	0.00022728802
0.16414551	0.041462619	0.00074573484	0.00022728802
0.16434245	0.034038335	0.00061557401	0.00022728802
0.16453938	0.031914894	0.00057852123	0.00022728802
0.16473632	0.034747746	0.00063136342	0.00022729376
0.16493326	0.036051214	0.0006578805	0.00022728802
0.1651302	0.034216706	0.00062311569	0.00022727586
0.16532713	0.036251709	0.00066675339	0.00022728802
0.16552407	0.037237644	0.00068161811	0.00022727586
0.165721	0.042372882	0.00077660114	0.00022728802
0.16591793	0.030209405	0.00055582734	0.00022727586
0.16611487	0.034624614	0.00063738239	0.00022727586
0.1663118	0.040277779	0.00074657891	0.00022728802
0.16650873	0.040563766	0.00074820506	0.00022728802
0.16670567	0.042025492	0.00077644718	0.00022728159
0.16690262	0.04550191	0.00084378722	0.00022727586
0.16709955	0.035876002	0.00066571659	0.00022727586
0.16729648	0.035814606	0.00066734024	0.00022727586
0.16749342	0.038300835	0.00071102084	0.00022727586
0.16769035	0.040223856	0.0007481561	0.00022727586
0.16788729	0.035310734	0.00065938546	0.00022727586
0.16808422	0.037204452	0.00068976358	0.00022727586
0.16828115	0.046404533	0.00086932862	0.00022727586
0.16847809	0.043554619	0.00081248721	0.00022726369
0.16867502	0.039040115	0.00073451677	0.00022728159
0.16887197	0.032635685	0.00061092176	0.00022727586
0.1690689	0.040254239	0.00075258804	0.00022726369
0.16926584	0.033404406	0.00062596262	0.00022727586
0.16946277	0.039529916	0.00074183161	0.00022727586
0.1696597	0.037756205	0.00071201619	0.00022726369
0.16985664	0.038475242	0.00072240207	0.00022726369
0.17005357	0.037513398	0.00070496398	0.00022727586
0.17025051	0.03772907	0.00071072648	0.00022726369
0.17044744	0.035855144	0.00067503692	0.00022726369
0.17064437	0.032432433	0.00061181508	0.00022726943
0.17084132	0.034917206	0.00065868016	0.00022727586
0.17103826	0.033151183	0.00062868017	0.00022726369
0.17123519	0.038002171	0.00071859028	0.00022726369
0.17143212	0.042131796	0.0007953454	0.00022726369
0.17162906	0.036192544	0.00068438076	0.00022726369
0.17182599	0.034644533	0.00065424392	0.00022726369
0.17202292	0.0320324	0.00061056134	0.00022726369
0.17221986	0.029764066	0.00056301779	0.00022726369
0.17241679	0.047393367	0.00090094027	0.00022726369
0.17261373	0.037550129	0.00071299553	0.00022725726
0.17281067	0.029850746	0.00056522334	0.00022726369
0.17300761	0.031914894	0.00060712302	0.00022726369
0.17320454	0.025510205	0.00048298805	0.00022725153
0.17340147	0.032496307	0.00062004954	0.00022725153
0.17359841	0.029119056	0.00055488333	0.00022725153
0.17379534	0.035255235	0.00067147368	0.00022726369
0.17399228	0.033736706	0.00064187014	0.00022726369
0.17418921	0.031158358	0.00059256493	0.00022725153
0.17438614	0.036471903	0.00069953979	0.00022725153
0.17458308	0.032448377	0.00061908329	0.00022725726
0.17478003	0.028507959	0.00054440938	0.00022725153
0.17497696	0.030683918	0.00058607885	0.00022725153
0.17517389	0.027920647	0.0005309757	0.00022725153
0.17537083	0.031847134	0.00061258191	0.00022723936
0.17556776	0.04209749	0.00080506137	0.00022723936
0.17576469	0.040238451	0.00077276543	0.00022723936
0.17596163	0.030269058	0.00058108143	0.00022725153
0.17615856	0.031539887	0.00060348341	0.00022725153
0.1763555	0.025307033	0.00048416571	0.00022725153
0.17655243	0.034521159	0.00066094042	0.00022724509
0.17674938	0.034560479	0.0006652865	0.00022723936
0.17694631	0.038620174	0.00074376317	0.00022723936
0.17714325	0.033670034	0.00064741401	0.00022725153
0.17734018	0.03567405	0.00068716513	0.00022723936
0.17753711	0.040907402	0.00078424398	0.00022723936
0.17773405	0.040571	0.0007816201	0.00022723936
0.17793098	0.032075472	0.00061848777	0.00022723936
0.17812791	0.035647281	0.00068608357	0.00022723936
0.17832485	0.030086499	0.00057871873	0.00022723936
0.17852178	0.027474595	0.00052894262	0.00022724509
0.17871873	0.026425065	0.00050899334	0.00022723936
0.17891566	0.039879609	0.00076855667	0.00022723936
0.1791126	0.0355119	0.00068621192	0.00022722721
0.17930953	0.033597585	0.00064822973	0.00022723936
0.17950647	0.033737682	0.00065262307	0.00022723936
0.1797034	0.029489603	0.00056915358	0.00022723936
0.17990033	0.026027914	0.00050118426	0.00022723936
0.18009727	0.03498099	0.0006777916	0.00022722721
0.1802942	0.029912911	0.00057735521	0.00022722721
0.18049113	0.032912362	0.0006396994	0.00022723294
0.18068808	0.028040925	0.00054134702	0.00022722721
0.18088502	0.031072376	0.00060064025	0.00022722721
0.18108195	0.026295731	0.0005089406	0.00022722721
0.18127888	0.028506272	0.00055164052	0.00022722721
0.18147582	0.03129771	0.00060691172	0.00022722721
0.18167275	0.037936267	0.00073428871	0.00022722721
0.18186969	0.032183908	0.00062578777	0.00022722721
0.18206662	0.031441718	0.00061156717	0.00022722721
0.18226355	0.042392127	0.00082041556	0.00022721505
0.18246049	0.031070195	0.00060439925	0.00022723294
0.18265744	0.029400535	0.00057008199	0.00022721505
0.18285437	0.03189854	0.00062095112	0.00022722721
0.1830513	0.03193536	0.00062166015	0.00022722721
0.18324824	0.034285713	0.00066475588	0.00022721505
0.18344517	0.030745581	0.00059860072	0.00022721505
0.1836421	0.033358894	0.00064888224	0.00022721505
0.18383904	0.037307691	0.00072724058	0.00022721505
0.18403597	0.032667179	0.00063612935	0.00022721505
0.18423291	0.034628704	0.00067501049	0.00022721505
0.18442984	0.028283611	0.00055247964	0.00022722078
0.18462679	0.028374232	0.00055133592	0.00022721505
0.18482372	0.032009255	0.00062437105	0.00022721505
0.18502066	0.039584935	0.00077188335	0.00022721505
0.18521759	0.035962876	0.00070277986	0.00022721505
0.18541452	0.034856699	0.00068143301	0.00022721505
0.18561146	0.036251444	0.00070743746	0.00022721505
0.18580839	0.028912876	0.00056287606	0.00022721505
0.18600532	0.026325978	0.00051347708	0.00022720288
0.18620226	0.036088474	0.00070621684	0.00022721505
0.18639919	0.031371031	0.00061291526	0.00022722078
0.18659614	0.032945737	0.00064428424	0.00022720288
0.18679307	0.035881434	0.00070421764	0.00022720288
0.18699001	0.028218012	0.00055076834	0.00022720288
0.18718694	0.03461688	0.00067847641	0.00022720288
0.18738388	0.031490017	0.00061297702	0.00022720288
0.18758081	0.029030992	0.0005702732	0.00022721505
0.18777774	0.033035368	0.00064700638	0.00022720288
0.18797468	0.029984424	0.00058705022	0.00022720288
0.18817161	0.028448949	0.00055733178	0.00022719071
0.18836854	0.028637771	0.00055945059	0.00022720861
0.18856549	0.034618411	0.00068266806	0.00022719071
0.18876243	0.039704166	0.00077911915	0.00022720288
0.18895936	0.038986355	0.00076522323	0.00022720288
0.18915629	0.032434545	0.00063695118	0.00022719071
0.18935323	0.026552128	0.00052022305	0.00022719071
0.18955016	0.033346411	0.0006559827	0.00022720288
0.1897471	0.031480763	0.00061594363	0.00022719071
0.18994403	0.027777778	0.00054544013	0.00022720288
0.19014096	0.039385583	0.00077700894	0.00022719071
0.1903379	0.039314907	0.00077097333	0.00022719646
0.19053484	0.037416305	0.00073779013	0.00022719071
0.19073178	0.036214951	0.00070960028	0.00022719071
0.19092871	0.03776554	0.00074413518	0.00022719071
0.19112565	0.024110671	0.00047484456	0.00022719071
0.19132258	0.027279813	0.00053422374	0.00022719071
0.19151951	0.032296181	0.00063647702	0.00022719071
0.19171645	0.029065201	0.00057159981	0.00022719071
0.19191338	0.027569909	0.00054209289	0.00022717856
0.19211031	0.029019607	0.00057025527	0.00022719071
0.19230725	0.026698077	0.0005246342	0.00022719646
0.1925042	0.038904328	0.00077068532	0.00022719071
0.19270113	0.033438239	0.00065869454	0.00022719071
0.19289806	0.029145332	0.0005739656	0.00022719071
0.193095	0.030943988	0.00060796109	0.00022717856
0.19329193	0.030964669	0.00061249471	0.00022719071
0.19348887	0.03204114	0.00063285662	0.00022717856
0.1936858	0.032638617	0.00064231013	0.00022717856
0.19388273	0.028413575	0.00055996497	0.00022717856
0.19407967	0.03045886	0.00060134917	0.00022717856
0.1942766	0.031486649	0.00062372116	0.0002271843
0.19447355	0.026995305	0.00052950077	0.00022717856
0.19467048	0.02338486	0.0004608795	0.00022717856
0.19486742	0.024920886	0.00049116771	0.0002271664
0.19506435	0.02701629	0.00053404295	0.0002271664
0.19526128	0.038292781	0.00075960759	0.0002271664
0.19545822	0.030552292	0.00060029846	0.0002271664
0.19565515	0.030837005	0.00061247899	0.0002271664
0.19585209	0.032539684	0.00064359268	0.0002271664
0.19604902	0.031274743	0.00061773596	0.0002271664
0.19624595	0.031872511	0.00063161569	0.00022717213
0.1964429	0.033490937	0.00066006719	0.00022717856
0.19663984	0.028445512	0.00056477229	0.0002271664
0.19683677	0.03595417	0.00070991355	0.0002271664
0.1970337	0.029552715	0.00058636931	0.0002271664
0.19723064	0.044894718	0.00089071353	0.0002271664
0.19742757	0.034948371	0.00069236226	0.0002271664
0.1976245	0.031714171	0.00063121296	0.00022715423
0.19782144	0.034837689	0.00068880501	0.0002271664
0.19801837	0.032747604	0.00064977194	0.0002271664
0.19821531	0.029517351	0.00058412255	0.00022715998
0.19841225	0.030652866	0.00060710451	0.0002271664
0.19860919	0.024419535	0.0004842644	0.00022715423
0.19880612	0.029330162	0.00057932734	0.00022715423
0.19900306	0.033373542	0.00066481432	0.00022715423
0.19919999	0.029517351	0.00058488292	0.00022715423
0.19939692	0.028286852	0.00056027895	0.00022715423
0.19959386	0.025806451	0.00051335176	0.0002271664
0.19979079	0.027866242	0.00055131555	0.00022715423
0.19998772	0.022444889	0.00044453805	0.00022715423
0.20018466	0.025518341	0.00050540554	0.00022715998
0.20038161	0.030960998	0.00061659934	0.00022715423
0.20057854	0.020808324	0.00041184371	0.00022715423
0.20077547	0.029564522	0.00058606802	0.00022715423
0.20097241	0.026580749	0.00052861718	0.00022715423
0.20116934	0.031948883	0.00063378701	0.00022715423
0.20136628	0.037424546	0.00074623839	0.00022714208
0.20156321	0.03202562	0.00063637481	0.00022715423
0.20176014	0.037081823	0.00073994353	0.00022714208
0.20195708	0.030824659	0.0006123209	0.00022715423
0.20215401	0.032089852	0.00063849281	0.00022715998
0.20235096	0.028594442	0.00056955841	0.00022714208
0.20254789	0.029211685	0.00057945575	0.00022714208
0.20274483	0.027586207	0.00055139628	0.00022714208
0.20294176	0.026810724	0.00053156738	0.00022714208
0.20313869	0.029911075	0.00059673656	0.00022714208
0.20333563	0.031111112	0.00062098348	0.00022714208
0.20353256	0.035045799	0.00069525983	0.00022712992
0.2037295	0.040617384	0.00081416109	0.00022712992
0.20392643	0.032038447	0.00063645438	0.00022714208
0.20412336	0.030438311	0.00060877996	0.00022714782
0.20432031	0.026199114	0.00052190281	0.00022714208
0.20451725	0.031676024	0.00062966469	0.00022714208
0.20471418	0.03168156	0.00063389092	0.00022712992
0.20491111	0.032786883	0.00065005681	0.00022714208
0.20510805	0.023567656	0.00047034275	0.00022712992
0.20530498	0.037156705	0.00074200868	0.00022712992
0.20550191	0.023283822	0.00046187048	0.00022712992
0.20569885	0.026530612	0.00053120102	0.00022712992
0.20589578	0.034081798	0.00067761407	0.00022712992
0.20609272	0.027698575	0.0005546473	0.00022713565
0.20628966	0.028617494	0.00056978769	0.00022712992
0.2064866	0.02515213	0.0005014037	0.00022711777
0.20668353	0.028455285	0.00056900887	0.00022712992
0.20688047	0.029411765	0.00058586692	0.00022712992
0.2070774	0.029173419	0.00058269396	0.00022711777
0.20727433	0.022150625	0.00043892078	0.00022711777
0.20747127	0.032179225	0.00064431084	0.00022711777
0.2076682	0.03696182	0.00073978858	0.00022712992
0.20786513	0.026677445	0.00053125602	0.00022712992
0.20806207	0.025244299	0.00050429662	0.0002271235
0.20825902	0.029471135	0.00058730581	0.00022711777
0.20845595	0.028524857	0.00057097868	0.00022711777
0.20865288	0.030707071	0.00061220815	0.00022711777
0.20884982	0.025316456	0.00050659507	0.00022711777
0.20904675	0.026444264	0.00052873685	0.00022711777
0.20924369	0.025557809	0.00051038165	0.0002271056
0.20944062	0.026731471	0.00053324492	0.00022711777
0.20963755	0.028374543	0.0005669411	0.00022711777
0.20983449	0.036595393	0.00073747506	0.00022711777
0.21003142	0.030032467	0.00060048484	0.00022711133
0.21022837	0.027687296	0.00055430859	0.00022711777
0.2104253	0.033822332	0.00067727239	0.00022711777
0.21062224	0.025392987	0.0005051925	0.0002271056
0.21081917	0.028842192	0.00058089604	0.0002271056
0.2110161	0.02874494	0.00057371438	0.0002271056
0.21121304	0.032980457	0.00066099479	0.0002271056
0.21140997	0.033020791	0.00066241261	0.0002271056
0.2116069	0.030637255	0.00061486987	0.0002271056
0.21180384	0.02947196	0.00059166236	0.0002271056
0.21200077	0.034343433	0.00068601023	0.00022711133
0.21219772	0.032098766	0.00064677856	0.00022709343
0.21239465	0.03492194	0.00070351752	0.0002271056
0.21259159	0.025182778	0.00050285406	0.0002271056
0.21278852	0.026530612	0.00053158507	0.0002271056
0.21298546	0.030438311	0.00060845033	0.00022709343
0.21318239	0.029702971	0.00059886801	0.00022709343
0.21337932	0.030844156	0.00061685522	0.00022709343
0.21357626	0.028197793	0.00056539697	0.0002271056
0.21377319	0.029302517	0.00059025211	0.0002271056
0.21397012	0.033781033	0.00067682983	0.00022709918
0.21416707	0.029832449	0.0005984832	0.00022709343
0.21436401	0.031390134	0.00062914198	0.00022709343
0.21456094	0.030402629	0.00061150891	0.00022709343
0.21475787	0.029967159	0.00060242723	0.00022708128
0.21495481	0.033919085	0.00068028137	0.00022709343
0.21515174	0.02253175	0.00045151936	0.00022709343
0.21534868	0.022513304	0.00045096499	0.00022708128
0.21554561	0.021407986	0.00042928933	0.00022709343
0.21574254	0.026143791	0.00052384235	0.00022708128
0.21593948	0.020987654	0.00042131718	0.00022709918
0.21613643	0.027504105	0.0005526999	0.00022708128
0.21633336	0.030340303	0.00060962915	0.00022708128
0.21653029	0.032867707	0.00066069758	0.00022708128
0.21672723	0.026927784	0.00053938263	0.00022709343
0.21692416	0.021443298	0.00043035208	0.00022708128
0.21712109	0.030390143	0.0006113589	0.00022708128
0.21731803	0.031622175	0.00063613191	0.00022708128
0.21751496	0.03211198	0.00064717804	0.00022708128
0.2177119	0.029327903	0.00058778928	0.00022708128
0.21790883	0.033651847	0.00068117876	0.00022708702
0.21810578	0.031045752	0.00062291347	0.00022708128
0.21830271	0.026446281	0.00053296133	0.00022708128
0.21849965	0.037860081	0.00076327176	0.00022706912
0.21869658	0.028232405	0.00056619645	0.00022708128
0.21889351	0.021558871	0.0004344933	0.00022706912
0.21909045	0.029086441	0.00058420555	0.00022706912
0.21928738	0.036731325	0.00074168318	0.00022706912
0.21948431	0.030528054	0.00061506906	0.00022706912
0.21968125	0.023016851	0.00046209156	0.00022706912
0.21987818	0.018984729	0.00038099071	0.00022707487
0.22007513	0.016782645	0.00033503899	0.00022706912
0.22027206	0.023226878	0.00046827921	0.00022706912
0.220469	0.02545156	0.00051106268	0.00022706912
0.22066593	0.021109272	0.00042481814	0.00022705697
0.22086287	0.022643063	0.00045502337	0.00022705697
0.2210598	0.02472188	0.00049715885	0.00022705697
0.22125673	0.025237897	0.00050839619	0.00022705697
0.22145367	0.017768595	0.00035665152	0.00022705697
0.2216506	0.026033059	0.00052481994	0.00022706912
0.22184753	0.02345679	0.00047130589	0.00022707487
0.22204448	0.023651453	0.00047688608	0.00022705697
0.22224142	0.025165016	0.00050675002	0.00022705697
0.22243835	0.025979381	0.00052239228	0.00022705697
0.22263528	0.024046434	0.00048504391	0.00022705697
0.22283222	0.0234375	0.00047087227	0.00022704482
0.22302915	0.025811823	0.00052195357	0.00022705697
0.22322609	0.023957042	0.00048175635	0.00022704482
0.22342302	0.023427866	0.00046969543	0.00022704482
0.22361995	0.023661271	0.00047733306	0.00022705697
0.22381689	0.025185797	0.00050751667	0.0002270627
0.22401384	0.027557412	0.00055854366	0.00022704482
0.22421077	0.02345679	0.00047086188	0.00022704482
0.2244077	0.021118013	0.00042491494	0.00022704482
0.22460464	0.02372035	0.00047897166	0.00022704482
0.22480157	0.024640657	0.00049457035	0.00022704482
0.2249985	0.024318658	0.00049285631	0.00022704482
0.22519544	0.023770493	0.00047570537	0.00022704482
0.22539237	0.027858628	0.00056303898	0.00022704482
0.22558931	0.024257632	0.00049100205	0.00022704482
0.22578624	0.026154475	0.00052416354	0.00022703838
0.22598319	0.025406081	0.00051362795	0.00022703265
0.22618012	0.028524183	0.00057548913	0.00022704482
0.22637706	0.031812474	0.00064590719	0.00022704482
0.22657399	0.033568174	0.00067853439	0.00022703265
0.22677092	0.034411278	0.00069565675	0.00022703265
0.22696786	0.028606964	0.00057787314	0.00022703265
0.22716479	0.038923394	0.00078708614	0.00022704482
0.22736172	0.040987033	0.00083366549	0.00022703265
0.22755866	0.031404957	0.0006337571	0.00022703265
0.22775559	0.028834099	0.00058477011	0.00022703265
0.22795253	0.027777778	0.00056109787	0.00022703838
0.22814947	0.032392025	0.00065522641	0.00022703265
0.22834641	0.027777778	0.00056109787	0.00022703265
0.22854334	0.029912755	0.00060486881	0.0002270205
0.22874027	0.024379991	0.00049517257	0.00022703265
0.22893721	0.021460999	0.00043186327	0.00022703265
0.22913414	0.028286189	0.00057201553	0.0002270205
0.22933108	0.022840532	0.00046083407	0.0002270205
0.22952801	0.027094623	0.00054849643	0.0002270205
0.22972494	0.02665556	0.00053889875	0.0002270205
0.22992188	0.02694859	0.00054380536	0.00022703838
0.23011883	0.025781911	0.0005252125	0.0002270205
0.23031576	0.027663087	0.00055737339	0.0002270205
0.23051269	0.02372035	0.00047912219	0.0002270205
0.23070963	0.02	0.00040351984	0.0002270205
0.23090656	0.027363185	0.00055277726	0.00022700834
0.23110349	0.022651007	0.00045969157	0.00022700834
0.23130043	0.0317063	0.00064301485	0.0002270205
0.23149736	0.030366056	0.00061426288	0.0002270205
0.2316943	0.027151212	0.00054981821	0.0002270205
0.23189123	0.022831051	0.00046023625	0.00022701408
0.23208818	0.033109806	0.00067213614	0.00022700834
0.23228511	0.024979183	0.00050465571	0.00022700834
0.23248205	0.027580444	0.00055859104	0.00022700834
0.23267898	0.028068706	0.00056942058	0.00022700834
0.23287591	0.032003324	0.00064778014	0.00022700834
0.23307285	0.030531159	0.00061998877	0.00022700834
0.23326978	0.027522936	0.0005569749	0.00022700834
0.23346671	0.020868113	0.00042178261	0.00022700834
0.23366365	0.023969723	0.00048669858	0.00022700834
0.23386058	0.027128547	0.0005493947	0.00022701408
0.23405753	0.026837325	0.00054070097	0.00022699618
0.23425446	0.024400504	0.00049564749	0.00022700834
0.2344514	0.028104028	0.0005707547	0.00022699618
0.23464833	0.026326787	0.00053318101	0.00022699618
0.23484527	0.026755853	0.00054180861	0.00022700834
0.2350422	0.029682275	0.00060249353	0.00022700834
0.23523913	0.029819403	0.00060642976	0.00022699618
0.23543607	0.025395503	0.00051358837	0.00022699618
0.235633	0.029682275	0.00060212944	0.00022699618
0.23582993	0.028068706	0.00056993705	0.00022700192
0.23602688	0.023578947	0.00047943566	0.00022698403
0.23622382	0.02334306	0.00047195121	0.00022699618
0.23642075	0.02045075	0.00041307072	0.00022699618
0.23661768	0.025984911	0.00052707351	0.00022698403
0.23681462	0.028619528	0.00058228616	0.00022698403
0.23701155	0.024237359	0.0004903865	0.00022699618
0.23720849	0.022556391	0.00045633479	0.00022698403
0.23740542	0.022670025	0.0004591436	0.00022699618
0.23760235	0.033962265	0.00069019967	0.00022698403
0.23779929	0.028979421	0.00058932282	0.00022698977
0.23799624	0.022537563	0.00045560388	0.00022698403
0.23819317	0.025220681	0.00051271799	0.00022698403
0.2383901	0.023929471	0.00048516796	0.00022698403
0.23858704	0.023879347	0.00048394821	0.00022698403
0.23878397	0.027661357	0.00056157622	0.00022698403
0.2389809	0.028104028	0.00057114265	0.00022697187
0.23917784	0.030685162	0.00062409131	0.00022697187
0.23937477	0.03706824	0.00073495251	0.00022698403
0.23957171	0.023450587	0.00047490711	0.00022697187
0.23976864	0.021684738	0.00043797318	0.00022697762
0.23996559	0.022315789	0.00045251162	0.00022697187
0.24016252	0.019881556	0.00040293319	0.00022697187
0.24035946	0.024712399	0.00050548866	0.00022697187
0.24055639	0.020710059	0.00042077361	0.00022697187
0.24075332	0.025127769	0.00051351113	0.00022697187
0.24095026	0.018876018	0.00038596737	0.00022697187
0.24114719	0.031489361	0.00064435293	0.00022697187
0.24134412	0.021841541	0.00044623745	0.00022697187
0.24154106	0.02631579	0.0005416128	0.00022697187
0.24173799	0.023737593	0.00048825171	0.00022696547
0.24193494	0.023003472	0.00047393722	0.00022697187
0.24213187	0.026247848	0.00053995941	0.00022695972
0.24232881	0.026672497	0.00055266393	0.00022697187
0.24252574	0.022299957	0.00046108768	0.00022695972
0.24272268	0.018777292	0.00038659197	0.00022695972
0.24291961	0.020255394	0.00042028626	0.00022695972
0.24311654	0.025239339	0.00052158663	0.00022695972
0.24331348	0.021323856	0.00044444439	0.00022695972
0.24351041	0.018959435	0.00039332311	0.00022695972
0.24370734	0.018485915	0.00038282006	0.00022696547
0.24390429	0.027580071	0.00057635223	0.00022695972
0.24410123	0.032647584	0.00068491697	0.00022695972
0.24429816	0.020870337	0.00043478003	0.00022694757
0.24449509	0.018730015	0.00039502286	0.00022694757
0.24469203	0.022580646	0.00047946788	0.00022695972
0.24488896	0.014526711	0.00030808858	0.00022694757
0.2450859	0.018335683	0.00039173651	0.00022694757
0.24528283	0.023663038	0.00050868443	0.00022694757
0.24547976	0.014306151	0.00030723136	0.00022694757
0.2456767	0.019249279	0.00041625716	0.0002269533
0.24587364	0.02068302	0.00044816817	0.00022694757
0.24607058	0.018455561	0.00040114787	0.0002269354
0.24626751	0.027616279	0.00060171488	0.00022694757
0.24646445	0.027572624	0.00060628436	0.00022694757
0.24666138	0.02063882	0.00045056574	0.00022694757
0.24685831	0.020720277	0.00045429516	0.0002269354
0.24705525	0.0153999	0.00033701383	0.0002269354
0.24725218	0.020469297	0.00044993244	0.0002269354
0.24744911	0.019607844	0.00043321174	0.00022694757
0.24764605	0.021989005	0.00048478338	0.00022694115
0.247843	0.032225579	0.00071656157	0.0002269354
0.24803993	0.022494888	0.00050267659	0.0002269354
0.24823686	0.025627883	0.00057382049	0.0002269354
0.2484338	0.016802443	0.00037274021	0.00022692325
0.24863073	0.017489713	0.00039020088	0.0002269354
0.24882767	0.021090535	0.00047230689	0.00022692325
0.2490246	0.021210553	0.000476054	0.00022692325
0.24922153	0.027690699	0.00062619406	0.00022692325
0.24941847	0.021795537	0.00049040443	0.00022692325
0.2496154	0.020031629	0.00045330188	0.000226929
0.24981235	0.02375924	0.00053888763	0.00022692965
0.25000927	0.01462141	0.00032818684	0.00022692325
0.2502062	0.016533334	0.00037571229	0.0002269354
0.25040314	0.018538136	0.00042026216	0.0002269111
0.25060007	0.02055165	0.00047039826	0.0002269226
0.25079703	0.023504274	0.00053604064	0.0002269111
0.25099397	0.017195057	0.0003916297	0.0002269111
0.2511909	0.017905589	0.00041044047	0.0002269111
0.25138783	0.021001615	0.00048119735	0.0002269111
0.25158477	0.021798365	0.00050163723	0.0002269111
0.2517817	0.021834061	0.00050254643	0.0002269111
0.25197864	0.018630138	0.00042898848	0.0002269111
0.25217557	0.018836565	0.00043496763	0.0002269111
0.2523725	0.020856202	0.00048055087	0.0002269111
0.25256944	0.027793219	0.00064727804	0.0002269111
0.25276637	0.0188784	0.00043720199	0.0002269111
0.2529633	0.01675042	0.00038881032	0.0002268868
0.25316024	0.028153153	0.00065989484	0.0002269111
0.25335717	0.023877203	0.00056101778	0.0002269111
0.25355411	0.02108963	0.00050265709	0.0002269111
0.25375104	0.016245488	0.00039060085	0.0002269111
0.25394797	0.016908212	0.0004070517	0.0002268868
0.25414491	0.024570024	0.00060069864	0.0002269111
0.25434184	0.025300443	0.0006260731	0.0002269111
0.25453877	0.024739584	0.00062219799	0.0002269226
0.25473574	0.022162525	0.00056469208	0.0002268868
0.25493267	0.016348774	0.000416341	0.0002269111
0.25512961	0.014603616	0.0003750601	0.0002269111
0.25532654	0.020581974	0.00053830718	0.0002269111
0.25552347	0.018208303	0.00048164607	0.0002268868
0.25572041	0.020454545	0.00055110123	0.0002269111
0.25591734	0.014586709	0.00040370488	0.0002269111
0.25611427	0.018916596	0.00053982122	0.0002268868
0.25631121	0.021004567	0.00061862729	0.0002268868
0.25650814	0.032045241	0.00096708303	0.0002268868
0.25670508	0.024201356	0.00073813437	0.0002268868
0.25690201	0.019027485	0.00059955602	0.0002268868
0.25709894	0.013468013	0.00043222937	0.0002268868
0.25729588	0.012987013	0.00041791153	0.0002268868
0.25749281	0.0083932858	0.00026274924	0.0002268868
0.25768974	0.021383647	0.00073350745	0.0002268868
0.25788668	0.012936611	0.00044170581	0.0002268868
0.25808361	0.016021362	0.00055659469	0.0002268868
0.25828055	0.020519836	0.00073372078	0.0002268868
0.25847748	0.015736766	0.00056792563	0.00022689829
0.25867444	0.020378457	0.00074561982	0.00022686248
0.25887138	0.024464833	0.00092698191	0.00022686248
0.25906831	0.030864198	0.0011795565	0.00022686248
0.25926524	0.017432647	0.0006622115	0.0002268868
0.25946218	0.020066889	0.00078631873	0.00022686248
0.25965911	0.028862478	0.0011504769	0.0002268868
0.25985605	0.022530328	0.00089029659	0.0002268868
0.26005298	0.020833334	0.00083182228	0.00022686248
0.26024991	0.022727273	0.00090791722	0.00022686248
0.26044685	0.014285714	0.00056519732	0.0002268868
0.26064378	0.021390375	0.00085884501	0.00022686248
0.26084071	0.021582734	0.00087046321	0.00022686248
0.26103765	0.023941068	0.00098165951	0.00022686248
0.26123458	0.016666668	0.00066736108	0.00022686248
0.26143152	0.041509435	0.001755614	0.0002268868
0.26162845	0.027726432	0.0011526978	0.00022686248
0.26182538	0.021032505	0.00086971099	0.00022686248
0.26202232	0.017612524	0.00072500837	0.00022686248
0.26221925	0.045634922	0.0019782013	0.00022686248
0.26241618	0.036328871	0.001547662	0.00022684968
0.26261315	0.035714287	0.0015475553	0.00022683818
0.26281008	0.026422765	0.0011456618	0.00022686248
0.26300701	0.024640657	0.0010701383	0.00022686248
0.26320395	0.012072435	0.0004948384	0.00022683818
0.26340088	0.027484143	0.0012154306	0.00022686248
0.26359782	0.039748956	0.0017714381	0.00022683818
0.26379475	0.027777778	0.0012190387	0.00022686248
0.26399168	0.012820513	0.00052320841	0.00022683818
0.26418862	0.015217391	0.00065759796	0.00022683818
0.26438555	0.020134227	0.00089885842	0.00022683818
0.26458248	0.016018307	0.00071023154	0.00022683818
0.26477942	0.0089686103	0.0003681932	0.00022683818
0.26497635	0.025641026	0.0011817269	0.00022686248
0.26517329	0.030303031	0.0014072885	0.00022683818
0.26537022	0.03178484	0.0015118506	0.00022683818
0.26556715	0.033653848	0.0015831384	0.00022683818
0.26576409	0.027227722	0.0012931903	0.00022683818
0.26596102	0.02020202	0.00095082429	0.00022683818
0.26615795	0.023316063	0.0011203368	0.00022683818
0.26635489	0.03836317	0.0018767248	0.00022684968
0.26655185	0.026525199	0.0012977349	0.00022681388
0.26674879	0.010958904	0.00049744733	0.00022683818
0.26694572	0.013513514	0.00062921649	0.00022683818
0.26714265	0.0082191778	0.00035174837	0.00022681388
0.26733959	0.016949153	0.00082351215	0.00022681388
0.26753652	0.017142856	0.00083768333	0.00022681388
0.26773345	0.021148037	0.0010778037	0.00022683818
0.26793039	0.023880597	0.0012222949	0.00022683818
0.26812732	0.01775148	0.00088273216	0.00022683818
0.26832426	0.025	0.0013093287	0.00022683818
0.26852119	0.0095238099	0.00043883399	0.00022683818
0.26871812	0.022508038	0.0011835413	0.00022683818
0.26891506	0.0096463021	0.00044733656	0.00022681388
0.26911199	0.030303031	0.0016605959	0.00022683818
0.26930892	0.033557046	0.0018472546	0.00022683818
0.26950586	0.041522492	0.0023247572	0.00022683818
0.26970279	0.020618556	0.0011052707	0.00022681388
0.26989973	0.021739131	0.0011966997	0.00022681388
0.27009666	0.018726591	0.0010269822	0.00022681388
0.27029359	0.019083969	0.0010565583	0.00022684968
0.27049056	0.021978023	0.0012165039	0.00022681388
0.27068749	0.038910504	0.0023071091	0.00022681388
0.27088442	0.028112451	0.0016128902	0.00022681388
0.27108136	0.016736401	0.00093951618	0.00022681388
0.27127829	0.0084033618	0.00038597916	0.00022681388
0.27147523	0.014184397	0.00084767985	0.00022681388
0.27167216	0	0	0.00022681388
0.27186909	0	0	0.00022681388
0.27206603	0	0	0.00022681388
0.27226296	0	0	0.00022681388
