#   DataFileName=PAL30_30C_WAXS.tif
#   DataFileType=.tif
#   
#   DataFilePath=E:DATA:PAL30_08262017:
#   
#   Processed on=Wed, Jan 16, 2019,2:40:42 AM
#   Units=Arbitrary
#   SampleThickness=1
#   SampleTransmission=1
#   CorrectionFactor=1
#   SampleMeasurementTime=1
#   EmptyMeasurementTime=1
#   BackgroundMeasTime=1
#   SampleI0=1
#   EmptyI0=1
#   Nika_SampleToDetectorDistacne=1552.1
#   Nika_Wavelength=1.54
#   Nika_XrayEnergy=8.0509
#   Nika_PixelSizeX=0.075
#   Nika_PixelSizeY=0.075
#   Nika_HorizontalTilt=0
#   Nika_VerticalTilt=0
#   Nika_BeamCenterX=1540.3
#   Nika_BeamCenterY=830.17
#   Nika_BeamSizeX=0
#   Nika_BeamCenterY=830.17
#   CalibrationFormula=1*((Sa2D))
#   CurrentMaskFileName=PAL30_30C_WAXS_mask.hdf
#   QvectorMaxNumPnts=1
#   QvectorNumberPoints=1383
#   CircularAverage=1
#   PolarizationCorrection=None
#   UncertainityCalculationMethod=OldNikaMethod

0.0060065244	9	6.3245554	0.00022756745
0.00620346	7.0799999	1.4078826	0.00022756765
0.0064003952	5.5789475	0.73546088	0.00022756765
0.0065973303	4.9875002	0.55641043	0.00022756765
0.0067942655	6.7857141	0.68368995	0.00022756765
0.0069912006	8.3084116	0.79567355	0.00022756745
0.0071881362	9.2049179	0.82019085	0.00022756727
0.0073850714	10.80916	0.93038183	0.00022756727
0.0075820065	10.365518	0.84954774	0.00022756727
0.0077789417	10.006803	0.81523162	0.00022756745
0.0079758773	9.0253162	0.71009642	0.00022756746
0.0081728119	8.5460119	0.66149265	0.00022756707
0.0083697475	6.8764043	0.51016492	0.00022756671
0.0085666822	6.3626943	0.45379299	0.00022756783
0.0087636178	5.8871794	0.41766798	0.00022756783
0.0089605534	4.8957348	0.33367532	0.00022756746
0.0091574881	5.0436683	0.33089978	0.00022756707
0.0093544237	4.4720001	0.28084692	0.00022756671
0.0095513584	4.0114069	0.24592936	0.00022756707
0.009748294	3.7463236	0.22579415	0.00022756707
0.0099452296	3.0974729	0.18496607	0.00022756595
0.010142164	3.1510792	0.18773364	0.00022756707
0.0103391	2.7003367	0.15578213	0.00022756671
0.010536035	2.4067798	0.1393905	0.00022756707
0.01073297	2.4013157	0.13693528	0.00022756783
0.010929906	2.2154341	0.12488784	0.00022756746
0.01112684	2.0894568	0.11737124	0.00022756783
0.011323776	1.9728916	0.10774323	0.00022756746
0.011520711	1.8353659	0.10074006	0.00022756707
0.011717646	1.704142	0.092251219	0.00022756707
0.011914582	1.5877193	0.085466377	0.00022756746
0.012111517	1.5478261	0.08290264	0.00022756783
0.012308452	1.3983517	0.072922222	0.00022756671
0.012505387	1.2627119	0.066723458	0.00022756783
0.012702323	1.2698413	0.064898647	0.00022756783
0.012899258	1.1394101	0.058709033	0.00022756671
0.013096193	1.0549738	0.053735383	0.00022756707
0.013293128	1.1508951	0.057965904	0.00022756671
0.013490063	1.0309278	0.052148577	0.00022756707
0.013686999	0.93137252	0.045895152	0.00022756707
0.013883934	0.87347931	0.042917766	0.00022756671
0.014080869	0.86363637	0.042062227	0.00022756707
0.014277805	0.73176473	0.035339963	0.00022756671
0.014474739	0.78014183	0.037747249	0.0002275663
0.014671675	0.77652371	0.036767159	0.00022756707
0.014868611	0.68636364	0.03260931	0.00022756671
0.015065545	0.6769231	0.031605385	0.0002275663
0.015262481	0.59871244	0.027614232	0.00022756671
0.015459416	0.61758244	0.0288442	0.00022756595
0.01565635	0.6034115	0.027773518	0.00022756707
0.015853286	0.59235668	0.027200419	0.00022756554
0.016050221	0.52164948	0.023613157	0.00022756707
0.016247157	0.46558705	0.020861685	0.00022756707
0.016444093	0.50199997	0.022375552	0.00022756483
0.016641026	0.51204818	0.022874882	0.00022756707
0.016837962	0.48296595	0.021535201	0.00022756707
0.017034898	0.39105058	0.017177261	0.00022756554
0.017231833	0.45124283	0.019669345	0.00022756554
0.017428769	0.38709676	0.016802208	0.00022756483
0.017625703	0.43738317	0.018856427	0.00022756554
0.017822638	0.40595904	0.017448207	0.00022756554
0.018019574	0.41176471	0.017590391	0.00022756554
0.018216509	0.36313868	0.015447482	0.00022756554
0.018413445	0.36493739	0.015369011	0.00022756483
0.018610379	0.32332155	0.013531586	0.00022756554
0.018807314	0.35776615	0.014882764	0.00022756554
0.01900425	0.29982668	0.012416366	0.00022756554
0.019201186	0.30419579	0.012668661	0.00022756554
0.019398121	0.29983249	0.012219942	0.00022756483
0.019595055	0.33898306	0.013906661	0.00022756554
0.019791991	0.33057851	0.013387004	0.00022756554
0.019988926	0.2446281	0.0099004647	0.00022756554
0.020185862	0.24509804	0.0098616946	0.00022756554
0.020382797	0.24203822	0.0096098492	0.00022756483
0.020579731	0.26375404	0.010559627	0.00022756403
0.020776667	0.25705329	0.010129004	0.00022756403
0.020973602	0.2488263	0.0098075829	0.00022756554
0.021170538	0.2453125	0.0096568549	0.00022756403
0.021367474	0.21719457	0.008394151	0.0002275633
0.021564407	0.21981424	0.0086065363	0.00022756403
0.021761343	0.23318386	0.0089816535	0.00022756403
0.021958278	0.22322775	0.008635099	0.00022756403
0.022155214	0.20998532	0.008011709	0.00022756403
0.02235215	0.20203489	0.0076643019	0.0002275633
0.022549083	0.21145375	0.0080712521	0.00022756403
0.022746019	0.20425531	0.0076654223	0.00022756403
0.022942955	0.22955523	0.0086627761	0.00022756403
0.02313989	0.17538896	0.0065642591	0.00022756403
0.023336826	0.17015342	0.0063276668	0.0002275633
0.02353376	0.15611814	0.0058244318	0.00022756403
0.023730695	0.18588874	0.006818831	0.00022756403
0.023927631	0.17103449	0.006322457	0.0002275625
0.024124566	0.16353887	0.0059617371	0.00022756403
0.024321502	0.14075068	0.0051302109	0.00022756179
0.024518436	0.16778524	0.0061199269	0.0002275625
0.024715371	0.15678525	0.0056654662	0.0002275625
0.024912307	0.16908851	0.0061177015	0.0002275625
0.025109243	0.1483376	0.0052806484	0.0002275625
0.025306178	0.15523933	0.0055552786	0.00022756179
0.025503112	0.14176245	0.0050411522	0.0002275625
0.025700048	0.15628971	0.0055427044	0.0002275625
0.025896983	0.13486005	0.0047884504	0.0002275625
0.026093919	0.16256158	0.0056813816	0.00022756097
0.026290854	0.18486352	0.0064860214	0.00022756179
0.026487788	0.13170731	0.0045769042	0.0002275625
0.026684724	0.12347189	0.0042948904	0.00022756097
0.026881659	0.13398294	0.0046525188	0.0002275625
0.027078595	0.14200477	0.0048825121	0.00022756097
0.027275531	0.12755716	0.004402678	0.00022756179
0.027472464	0.13853317	0.0047044978	0.00022756097
0.0276694	0.11583924	0.0039591817	0.00022756097
0.027866336	0.11484919	0.0038910194	0.00022756097
0.028063271	0.13255814	0.0045011966	0.00022756097
0.028260207	0.12470862	0.0042329035	0.00022756026
0.028457141	0.13468014	0.0044937492	0.00022756097
0.028654076	0.12826334	0.0043028812	0.00022756097
0.028851012	0.11744966	0.003907959	0.00022756097
0.029047947	0.10414334	0.0034657458	0.00022756097
0.029244883	0.11473566	0.0038291242	0.00022756026
0.029441817	0.10457516	0.0034338355	0.00022756097
0.029638752	0.13076924	0.0043163099	0.00022755946
0.029835688	0.10140237	0.0033103433	0.00022756097
0.030032624	0.096774191	0.0031557926	0.00022755946
0.030229559	0.097402595	0.0031846003	0.00022755875
0.030426493	0.11276596	0.0036589568	0.00022755946
0.030623429	0.10756124	0.0034921467	0.00022755946
0.030820364	0.10526316	0.003365353	0.00022755946
0.0310173	0.10410095	0.0033593401	0.00022755946
0.031214235	0.086099587	0.0027553234	0.00022755946
0.031411171	0.1026694	0.0032736079	0.00022755875
0.031608105	0.10444674	0.0033428478	0.00022755571
0.031805038	0.11425682	0.0036165859	0.00022756017
0.032001976	0.10111223	0.0031993908	0.00022755875
0.03219891	0.10653266	0.0033612212	0.00022756017
0.032395847	0.095904097	0.0030146001	0.00022755875
0.032592781	0.094339624	0.0029570181	0.00022755875
0.032789715	0.097847357	0.0030434821	0.00022756017
0.032986652	0.11034483	0.0034475124	0.00022755571
0.033183586	0.080817915	0.0025071146	0.00022755713
0.033380523	0.083815031	0.002587057	0.00022755875
0.033577457	0.10019268	0.0030940261	0.00022755571
0.033774391	0.093422309	0.0028689485	0.00022755713
0.033971328	0.094465651	0.0029031674	0.00022755571
0.034168262	0.10028382	0.0030703261	0.00022756017
0.0343652	0.088595666	0.0027048229	0.00022755571
0.034562133	0.094707519	0.0028719062	0.00022755571
0.034759067	0.08812616	0.0026705568	0.00022756017
0.034956004	0.070370369	0.002127033	0.00022755571
0.035152938	0.09406393	0.0028281757	0.00022755713
0.035349876	0.081204377	0.0024386039	0.00022755571
0.035546809	0.091651544	0.0027473459	0.00022755571
0.035743743	0.091485508	0.002739067	0.00022755713
0.035940681	0.093273543	0.0027795497	0.00022755571
0.036137614	0.089698046	0.0026596894	0.00022755713
0.036334552	0.10390764	0.0030837506	0.00022755266
0.036531486	0.082010582	0.0024221679	0.00022755266
0.036728419	0.089065254	0.0026310645	0.00022755713
0.036925357	0.083478265	0.0024490443	0.00022755571
0.037122291	0.087749779	0.0025732282	0.00022755713
0.037319228	0.097053729	0.0028447572	0.00022755571
0.037516162	0.078032233	0.0022606035	0.00022755266
0.037713096	0.093401887	0.0027215758	0.00022755713
0.037910033	0.084327087	0.0024489458	0.00022755266
0.038106967	0.080576763	0.0023342355	0.00022755409
0.038303904	0.089451477	0.002585944	0.00022755266
0.038500838	0.088186353	0.0025314912	0.00022755266
0.038697772	0.07190083	0.0020545651	0.00022755409
0.038894709	0.076158941	0.0021799279	0.00022755266
0.039091643	0.082712986	0.0023671521	0.00022755409
0.03928858	0.072950818	0.0020765995	0.00022755266
0.039485514	0.067424856	0.0019106079	0.00022755266
0.039682448	0.074735984	0.0021183437	0.00022755409
0.039879385	0.087550201	0.0024697958	0.00022755266
0.040076319	0.081600003	0.0022964589	0.00022755409
0.040273257	0.081861958	0.0023075291	0.00022754962
0.04047019	0.079554498	0.0022330566	0.00022754962
0.040667124	0.10246227	0.0028760533	0.00022755409
0.040864062	0.086786553	0.0024161013	0.00022755266
0.041060995	0.073094867	0.0020275137	0.00022755409
0.041257933	0.074882992	0.0020792459	0.00022754962
0.041454867	0.077042803	0.0021382864	0.00022755266
0.0416518	0.068482488	0.0018992769	0.00022755409
0.041848738	0.07557252	0.0020777818	0.00022754962
0.042045671	0.059315588	0.0016241829	0.00022754801
0.042242609	0.079087451	0.0021704491	0.00022754657
0.042439543	0.076689444	0.00210248	0.00022754353
0.042636476	0.069120958	0.001883646	0.00022754801
0.042833414	0.079819277	0.002180791	0.00022754657
0.043030348	0.06721434	0.0018270625	0.00022754801
0.043227285	0.070162483	0.0018971843	0.00022754353
0.043424219	0.070744291	0.0019102807	0.00022754353
0.043621153	0.076470591	0.0020635948	0.00022754801
0.04381809	0.072580643	0.001955796	0.00022754353
0.044015024	0.065106072	0.0017516305	0.00022754495
0.044211961	0.072463766	0.0019409964	0.00022754353
0.044408895	0.080575541	0.0021516162	0.00022754353
0.044605829	0.068965517	0.0018384693	0.00022754495
0.044802766	0.072453372	0.001931049	0.00022754353
0.0449997	0.062098499	0.0016500865	0.00022754495
0.045196638	0.079858661	0.0021138012	0.00022754353
0.045393571	0.061702128	0.0016338724	0.00022754353
0.045590505	0.066573232	0.0017534499	0.00022754495
0.045787442	0.071528755	0.0018849825	0.00022754048
0.045984376	0.069444448	0.0018209292	0.00022754191
0.046181314	0.079805687	0.0020932618	0.00022754353
0.046378247	0.055939227	0.0014600985	0.00022754048
0.046575181	0.0711326	0.0018594516	0.00022754191
0.046772119	0.076764904	0.0020004455	0.00022754353
0.046969052	0.074880868	0.0019443348	0.00022754495
0.04716599	0.08588957	0.0022333155	0.00022754048
0.047362924	0.067385443	0.0017398261	0.00022754048
0.047559857	0.074396782	0.0019154919	0.00022754495
0.047756795	0.06514439	0.0016786181	0.00022754048
0.047953729	0.088531189	0.0022828362	0.00022754495
0.048150666	0.076310553	0.0019561895	0.00022754048
0.0483476	0.061048441	0.0015634262	0.00022754048
0.048544534	0.075965948	0.0019340725	0.00022754191
0.048741471	0.059986815	0.0015295481	0.00022753744
0.048938405	0.060586318	0.0015369403	0.00022754191
0.049135342	0.067496724	0.0017175457	0.00022754048
0.049332276	0.071289696	0.0018056724	0.00022753744
0.04952921	0.070504531	0.0017833406	0.00022753887
0.049726147	0.084461637	0.0021347383	0.00022753744
0.049923081	0.093096897	0.0023338634	0.00022754191
0.050120018	0.06713555	0.0016872445	0.00022753744
0.050316952	0.070377477	0.0017708223	0.00022753744
0.050513886	0.059682541	0.0014925427	0.00022753887
0.050710823	0.061509196	0.0015384046	0.00022753744
0.050907757	0.058348853	0.0014432813	0.00022753887
0.051104695	0.068707056	0.0017075677	0.00022753744
0.051301628	0.074906364	0.0018608603	0.00022753744
0.051498562	0.076154806	0.0018926321	0.00022753887
0.0516955	0.087198518	0.002158151	0.00022753744
0.051892433	0.094247244	0.00232141	0.00022753887
0.052089371	0.075308643	0.001861296	0.0002275344
0.052286305	0.0752884	0.0018445862	0.00022753744
0.052483238	0.074164137	0.0018186476	0.00022753583
0.052680176	0.068085104	0.0016689906	0.0002275344
0.052877109	0.063221887	0.0015489835	0.00022753887
0.053074047	0.069318868	0.0016922554	0.0002275344
0.053270981	0.070447758	0.0017105369	0.00022753744
0.053467914	0.069809072	0.0016952707	0.00022753887
0.053664852	0.075091578	0.0018441998	0.0002275344
0.053861786	0.064396285	0.0015916066	0.00022753583
0.054058723	0.077210464	0.0019161907	0.0002275344
0.054255657	0.060606062	0.0014970776	0.0002275344
0.054452591	0.060662914	0.0015057832	0.00022753583
0.054649528	0.071740486	0.001781994	0.0002275344
0.054846462	0.06708464	0.0016691522	0.00022753583
0.055043399	0.079395086	0.0019820319	0.00022753136
0.055240333	0.06506633	0.0016240472	0.0002275344
0.055437267	0.054190297	0.0013492686	0.00022753583
0.055634204	0.055068836	0.0013674742	0.00022753136
0.055831138	0.079797342	0.0019976262	0.00022753279
0.056028076	0.065449968	0.0016316028	0.00022753136
0.056225009	0.065739572	0.0016424463	0.00022753136
0.056421943	0.056796428	0.0014238723	0.00022753279
0.05661888	0.073538654	0.0018337677	0.00022753136
0.056815814	0.060967945	0.0015183031	0.00022753279
0.057012752	0.06898734	0.001723281	0.00022753136
0.057209685	0.069444448	0.0017352817	0.00022752832
0.057406619	0.070075758	0.0017503059	0.00022753279
0.057603557	0.064434618	0.0016095373	0.00022753136
0.05780049	0.062025316	0.0015494915	0.00022753279
0.057997428	0.067839198	0.0016893583	0.00022752832
0.058194362	0.078282826	0.0019558719	0.00022752832
0.058391295	0.06506633	0.0016234257	0.00022752974
0.058588233	0.0820802	0.002042786	0.00022752832
0.058785167	0.091139242	0.0022804933	0.00022752974
0.058982104	0.077309869	0.001927698	0.00022752832
0.059179038	0.067211054	0.0016732807	0.00022752832
0.059375972	0.075519197	0.0018837479	0.00022752974
0.059572909	0.073934838	0.0018405986	0.00022752528
0.059769843	0.080025204	0.0019976327	0.00022752974
0.05996678	0.065675341	0.0016241552	0.00022752528
0.060163714	0.082545683	0.0020611633	0.00022752528
0.060360648	0.077306733	0.0019206604	0.00022752974
0.060557585	0.076393239	0.0018999784	0.00022752528
0.060754519	0.072184198	0.0017898164	0.0002275267
0.060951456	0.072409488	0.0017987452	0.00022752528
0.06114839	0.067828253	0.0016816024	0.00022752528
0.061345324	0.088418432	0.0021953823	0.0002275267
0.061542261	0.06273292	0.0015529301	0.00022752528
0.061739195	0.07027363	0.0017413709	0.0002275267
0.061936133	0.088654682	0.0021960293	0.00022752528
0.062133066	0.054455444	0.0013441566	0.00022752528
0.06233	0.054769229	0.0013479633	0.00022752528
0.062526934	0.05686032	0.0014034515	0.0002275251
0.062723875	0.063275434	0.0015652229	0.00022751919
0.062920809	0.077681877	0.0019190683	0.00022752528
0.063117743	0.058896467	0.0014562357	0.00022751919
0.063314676	0.071603425	0.001761195	0.00022751919
0.06351161	0.052535124	0.0012886215	0.00022752814
0.063708551	0.049049664	0.0012053759	0.00022751919
0.063905485	0.05686032	0.0014041247	0.00022751919
0.064102419	0.05792683	0.0014212133	0.00022751919
0.064299352	0.071647272	0.0017622919	0.00022752528
0.064496286	0.059182428	0.0014508299	0.00022752205
0.064693227	0.052247874	0.0012784159	0.00022751919
0.064890161	0.055757575	0.0013628143	0.00022751919
0.065087095	0.055589493	0.0013652868	0.00022752528
0.065284029	0.047037262	0.0011521822	0.00022752528
0.065480962	0.055084746	0.0013462357	0.00022752205
0.065677904	0.049338147	0.0012013754	0.00022752528
0.065874837	0.056261342	0.0013751476	0.00022751919
0.066071771	0.057796508	0.0014097586	0.00022751919
0.066268705	0.055622734	0.0013586866	0.00022751919
0.066465639	0.049367853	0.0012022791	0.00022752205
0.06666258	0.060479041	0.0014712939	0.00022751919
0.066859514	0.051483948	0.0012578502	0.00022751919
0.067056447	0.048751485	0.0011798292	0.00022751919
0.067253381	0.053795576	0.0013061594	0.00022751919
0.067450315	0.053795576	0.0013074676	0.00022751596
0.067647256	0.05508982	0.0013395244	0.00022751919
0.06784419	0.055755395	0.0013561592	0.00022751919
0.068041123	0.052662723	0.0012724011	0.00022751311
0.068238057	0.049792532	0.0012033336	0.00022751311
0.068434991	0.046345811	0.0011212857	0.00022752205
0.068631932	0.04964539	0.0011971401	0.00022751311
0.068828866	0.042464115	0.0010310479	0.00022751311
0.0690258	0.046171829	0.0011078413	0.00022751311
0.069222733	0.057260919	0.0013814807	0.00022751311
0.069419667	0.052009456	0.0012555877	0.00022751596
0.069616608	0.048651818	0.0011690623	0.00022751311
0.069813542	0.048737522	0.0011712889	0.00022751311
0.070010476	0.04475854	0.0010774462	0.00022751311
0.07020741	0.046072062	0.0011108071	0.00022751311
0.070404343	0.056614675	0.0013516208	0.00022752205
0.070601285	0.041447751	0.0009918412	0.00022751311
0.070798218	0.055781521	0.0013359329	0.00022751311
0.070995152	0.056891497	0.0013694578	0.00022751311
0.071192086	0.035610043	0.00085215416	0.00022751311
0.071389019	0.052934408	0.0012616694	0.00022751596
0.071585961	0.042343389	0.001010967	0.00022750701
0.071782894	0.05202312	0.0012425956	0.00022751311
0.071979828	0.060359839	0.0014449797	0.00022751311
0.072176762	0.054178674	0.001292511	0.00022751311
0.072373696	0.051575933	0.001226605	0.00022751596
0.072570637	0.042898551	0.0010246497	0.00022751311
0.072767571	0.041500852	0.00098131283	0.00022750701
0.072964504	0.046296295	0.0011063527	0.00022750701
0.073161438	0.03975014	0.00093935023	0.00022751311
0.073358372	0.039473683	0.00093674328	0.00022750988
0.073555313	0.048387095	0.001153401	0.00022750701
0.073752247	0.047484454	0.0011204653	0.00022751311
0.073949181	0.04109589	0.00097430078	0.00022750701
0.074146114	0.039049234	0.00092108181	0.00022751311
0.074343048	0.04335425	0.0010278525	0.00022750988
0.074539989	0.045996591	0.001087929	0.00022750701
0.074736923	0.050307434	0.0011807363	0.00022750701
0.074933857	0.044963006	0.0010639193	0.00022750701
0.07513079	0.051801801	0.0012213865	0.00022750701
0.075327724	0.047860362	0.0011275527	0.0002275038
0.075524665	0.052957747	0.0012484862	0.00022750701
0.075721599	0.045100223	0.0010569305	0.00022750093
0.075918533	0.053490993	0.0012612442	0.00022750701
0.076115467	0.059317291	0.0013962013	0.00022750701
0.0763124	0.066443324	0.001562949	0.00022750988
0.076509342	0.066740826	0.0015646479	0.00022750701
0.076706275	0.06052193	0.0014176632	0.00022750701
0.076903209	0.067264572	0.0015837731	0.00022750701
0.077100143	0.050688706	0.0011822246	0.00022750093
0.077297077	0.06596452	0.0015443173	0.0002275038
0.077494018	0.05339266	0.001251025	0.00022750093
0.077690952	0.052226499	0.0012170522	0.00022750093
0.077887885	0.048467968	0.0011368014	0.00022750093
0.078084819	0.049019609	0.0011368191	0.00022750093
0.078281753	0.042927902	0.0010002081	0.0002275038
0.078478694	0.046780407	0.0010903627	0.00022750093
0.078675628	0.038230475	0.00088599109	0.00022750093
0.078872561	0.037486218	0.00087292824	0.00022750093
0.079069495	0.044686649	0.0010364586	0.00022750093
0.079266429	0.043644298	0.0010116844	0.0002275038
0.07946337	0.036532171	0.00084670197	0.00022750093
0.079660304	0.049756624	0.0011500356	0.00022750093
0.079857238	0.042053524	0.00097531237	0.00022750093
0.080054171	0.04867496	0.0011247081	0.00022750093
0.080251105	0.04250681	0.00098552462	0.0002275038
0.080448046	0.04528302	0.0010437431	0.00022749485
0.08064498	0.038008567	0.0008714968	0.00022750093
0.080841914	0.043902438	0.0010149415	0.00022750093
0.081038848	0.044527896	0.0010240439	0.00022749485
0.081235781	0.042207792	0.00097497931	0.00022749772
0.081432723	0.039487727	0.00090555951	0.00022749485
0.081629656	0.039999999	0.00091683335	0.00022749485
0.08182659	0.048205677	0.0011088954	0.00022749485
0.082023524	0.036189463	0.00082765432	0.00022749485
0.082220457	0.045964725	0.001055573	0.00022749772
0.082417399	0.048	0.0011013914	0.00022749485
0.082614332	0.037786055	0.00086524937	0.00022749485
0.082811266	0.044609666	0.0010211325	0.00022749485
0.0830082	0.039999999	0.00091024453	0.00022749485
0.083205134	0.054439746	0.0012448609	0.00022749163
0.083402075	0.04226096	0.00096457207	0.00022749485
0.083599009	0.037786055	0.0008650751	0.00022749485
0.083795942	0.04144806	0.00094237964	0.00022748877
0.083992876	0.038239915	0.00086810155	0.00022749485
0.08418981	0.043455496	0.00098712149	0.00022749772
0.084386751	0.042909473	0.00097509043	0.00022748877
0.084583685	0.042341873	0.00096189446	0.00022749485
0.084780619	0.048412286	0.0010979986	0.00022749485
0.084977552	0.041231733	0.00093501026	0.00022748877
0.085174486	0.039813858	0.00089750794	0.00022749163
0.085371427	0.04472179	0.001012346	0.00022748877
0.085568361	0.038600102	0.00086927554	0.00022748877
0.085765295	0.040123455	0.00090349495	0.00022748877
0.085962228	0.037539102	0.00085040426	0.00022748877
0.086159162	0.038105045	0.00085824833	0.00022748555
0.086356103	0.041284405	0.0009260801	0.00022748877
0.086553037	0.031827517	0.00071414025	0.00022748877
0.086749971	0.036566786	0.00081773382	0.00022748877
0.086946905	0.034979425	0.00078631262	0.00022748268
0.087143838	0.044095285	0.00098553579	0.00022749163
0.08734078	0.040285569	0.00090212404	0.00022748877
0.087537713	0.043059777	0.00096247683	0.00022748268
0.087734647	0.046029337	0.0010283897	0.00022748877
0.087931581	0.033536587	0.00074988982	0.00022748877
0.088128515	0.046710197	0.001040961	0.00022748555
0.088325456	0.052870091	0.0011801397	0.00022748268
0.08852239	0.050126582	0.0011214676	0.00022748268
0.088719323	0.051422864	0.0011425939	0.00022748268
0.088916257	0.035571143	0.00078964827	0.00022748268
0.089113191	0.041958041	0.00093117164	0.00022748555
0.089310132	0.04045954	0.00089748797	0.00022748268
0.089507066	0.053286854	0.0011824172	0.00022748268
0.089703999	0.043154761	0.00095493568	0.00022748268
0.089900933	0.039500002	0.00087700319	0.00022748268
0.090097867	0.041810133	0.00092074799	0.00022747947
0.090294808	0.036390826	0.00080604706	0.00022748268
0.090491742	0.036507152	0.00080467574	0.00022748268
0.090688676	0.041028176	0.00090610038	0.00022748268
0.090885609	0.044422507	0.00098044088	0.0002274766
0.091082543	0.041358937	0.00091142691	0.00022748268
0.091279477	0.033939991	0.00074664899	0.00022748555
0.091476418	0.039842598	0.00087744242	0.0002274766
0.091673352	0.037109375	0.00081393722	0.00022748268
0.091870286	0.04221895	0.00092867692	0.0002274766
0.092067219	0.03623898	0.00079567655	0.0002274766
0.092264153	0.047711782	0.0010465179	0.00022747947
0.092461094	0.04585366	0.0010063137	0.0002274766
0.092658028	0.032762837	0.00071875483	0.0002274766
0.092854962	0.043057572	0.00094099354	0.0002274766
0.093051895	0.038666021	0.00084413146	0.0002274766
0.093248829	0.039339487	0.00086113875	0.00022747337
0.09344577	0.04108265	0.00089757331	0.0002274766
0.093642704	0.04713314	0.0010327427	0.00022747052
0.093839638	0.039054967	0.00085168029	0.0002274766
0.094036572	0.043771043	0.000953865	0.0002274766
0.094233505	0.03468208	0.00075576891	0.00022747947
0.094430447	0.045977011	0.0010007259	0.00022747052
0.09462738	0.047342993	0.0010345149	0.00022747052
0.094824314	0.037780967	0.00081970391	0.00022747052
0.095021248	0.044040211	0.00095796882	0.00022747052
0.095218182	0.049976204	0.0010843702	0.00022747337
0.095415123	0.045389391	0.00098591635	0.00022747052
0.095612057	0.027632207	0.00059768633	0.00022747052
0.09580899	0.037089873	0.00080297631	0.00022747052
0.096005924	0.042583734	0.00092538231	0.00022747052
0.096202858	0.037932668	0.00082022679	0.00022747337
0.096399799	0.041607566	0.00089884293	0.00022747052
0.096596733	0.035277516	0.00075933558	0.00022746444
0.096793666	0.035444234	0.00076541567	0.00022747052
0.0969906	0.0415879	0.00089844089	0.00022746444
0.097187534	0.032516494	0.00070016435	0.00022747337
0.097384475	0.047709022	0.0010309832	0.00022746444
0.097581409	0.03618421	0.00077879906	0.00022747052
0.097778343	0.036761284	0.00078737928	0.00022746444
0.097975276	0.042352941	0.00091294764	0.00022746444
0.09817221	0.035914179	0.0007698324	0.00022746729
0.098369151	0.034889203	0.00075191085	0.00022746444
0.098566085	0.031959239	0.00068194873	0.00022746444
0.098763019	0.04262295	0.00091680157	0.00022746444
0.098959953	0.032377429	0.0006913541	0.00022746444
0.099156886	0.036489606	0.00077841245	0.00022746121
0.099353828	0.03127918	0.00066987379	0.00022746444
0.099550761	0.036710039	0.00078547758	0.00022745834
0.099747695	0.047948364	0.0010236679	0.00022745834
0.099944629	0.035615172	0.00076023693	0.00022745834
0.10014156	0.03586207	0.00076279312	0.00022746121
0.1003385	0.039224736	0.00083713536	0.00022745834
0.10053544	0.03348624	0.00071188825	0.00022746444
0.10073237	0.031598512	0.00067539321	0.00022745834
0.1009293	0.035747021	0.00075963215	0.00022746444
0.10112624	0.035	0.00073998765	0.00022746121
0.10132318	0.030330881	0.0006449651	0.00022746444
0.10152011	0.033166744	0.00070158899	0.00022745834
0.10171705	0.037494283	0.00079643144	0.00022745834
0.10191398	0.027803099	0.00058833993	0.00022745834
0.10211091	0.03334856	0.00070709718	0.00022746121
0.10230786	0.04229195	0.0008954301	0.00022745834
0.10250479	0.04023508	0.00085009669	0.00022745226
0.10270172	0.038738739	0.00081667874	0.00022745226
0.10289866	0.043280181	0.00091809162	0.00022745226
0.10309559	0.03068592	0.00064676884	0.00022745512
0.10329253	0.032184951	0.00067987811	0.00022745226
0.10348947	0.032735426	0.00068820803	0.00022745834
0.1036864	0.047747746	0.0010078278	0.00022745226
0.10388333	0.03723643	0.00078342081	0.00022745226
0.10408027	0.043634728	0.00092010328	0.00022746121
0.10427721	0.040358745	0.0008495425	0.00022745226
0.10447414	0.048900854	0.0010299197	0.00022745226
0.10467108	0.040106952	0.00084044546	0.00022745226
0.10486801	0.037997317	0.00079825724	0.00022745226
0.10506494	0.041685145	0.00087283744	0.00022745512
0.10526188	0.046770602	0.00098198524	0.00022745226
0.10545882	0.045658011	0.00096099771	0.00022744617
0.10565575	0.041205138	0.00086264627	0.00022745226
0.10585269	0.046181172	0.0009680441	0.00022745226
0.10604962	0.045053005	0.0009415911	0.00022745512
0.10624656	0.053982303	0.0011305	0.00022744617
0.10644349	0.067961164	0.0014222029	0.00022744617
0.10664043	0.055482168	0.0011589885	0.00022745226
0.10683736	0.06103494	0.0012782718	0.00022744617
0.1070343	0.065140843	0.0013619239	0.00022744904
0.10723124	0.064713597	0.0013477386	0.00022744617
0.10742817	0.069162995	0.0014464482	0.00022744617
0.1076251	0.063774407	0.0013234895	0.00022744617
0.10782204	0.053186812	0.0011101898	0.00022744617
0.10801897	0.069523394	0.0014485919	0.00022744904
0.10821591	0.061706785	0.0012863268	0.00022744617
0.10841285	0.061900612	0.0012876111	0.00022744617
0.10860978	0.056685418	0.0011737279	0.00022744009
0.10880671	0.063652329	0.0013285573	0.00022744009
0.10900365	0.059991367	0.0012413086	0.00022744904
0.10920059	0.064850844	0.0013430131	0.00022744009
0.10939752	0.055097613	0.0011426241	0.00022744009
0.10959446	0.063930884	0.0013242104	0.00022744009
0.10979139	0.060382277	0.0012532665	0.00022744009
0.10998832	0.069438495	0.0014326547	0.00022744296
0.11018527	0.077619664	0.0016064033	0.00022744009
0.1103822	0.063334771	0.0013090313	0.00022744009
0.11057913	0.06437768	0.0013288754	0.00022743401
0.11077607	0.075301208	0.001557262	0.00022744009
0.110973	0.058773424	0.0012081986	0.00022743687
0.11116994	0.067550234	0.0013921493	0.00022743401
0.11136688	0.069807284	0.0014399022	0.00022743401
0.11156381	0.069332197	0.0014247939	0.00022743401
0.11176074	0.086324789	0.001779582	0.00022743401
0.11195768	0.080152668	0.0016457585	0.00022744296
0.11215462	0.089781955	0.0018517901	0.00022743401
0.11235155	0.10229202	0.0021024493	0.00022743401
0.11254849	0.098775856	0.0020248208	0.00022743401
0.11274542	0.095258258	0.001955501	0.00022743401
0.11294235	0.11964361	0.002459795	0.00022743687
0.11313929	0.1294964	0.0026592428	0.00022743401
0.11333623	0.15358791	0.0031415862	0.00022743401
0.11353316	0.17124736	0.0035167045	0.00022742792
0.1137301	0.15462185	0.0031645522	0.00022743401
0.11392703	0.18075314	0.0036925795	0.00022743079
0.11412397	0.18185636	0.0037220311	0.00022742792
0.1143209	0.17864649	0.0036579859	0.00022742792
0.11451784	0.21850146	0.0044654892	0.00022742792
0.11471477	0.22534621	0.0046116402	0.00022742792
0.11491171	0.20919636	0.0042531281	0.00022743079
0.11510865	0.23831385	0.0048637707	0.00022742792
0.11530558	0.2235637	0.0045566903	0.00022742792
0.11550251	0.2781263	0.0056833988	0.00022742792
0.11569945	0.29962701	0.0060950331	0.00022742792
0.11589638	0.34133223	0.0069378391	0.00022743079
0.11609332	0.35965276	0.0073077693	0.00022742792
0.11629026	0.43667218	0.0088792806	0.00022742792
0.11648719	0.55312115	0.011240848	0.00022742184
0.11668412	0.68579686	0.013929629	0.00022742184
0.11688106	0.88856667	0.018079573	0.00022742471
0.117078	1.1694078	0.023706567	0.00022742184
0.11727493	1.6139991	0.032646827	0.00022742184
0.11747187	2.2644291	0.045804661	0.00022742184
0.1176688	3.0213201	0.061166361	0.00022742184
0.11786573	4.0338283	0.081917778	0.00022742471
0.11806267	5.2164149	0.10539316	0.00022742184
0.11825961	6.5395331	0.13234349	0.00022742184
0.11845654	7.8187346	0.15743051	0.00022742184
0.11865348	8.9157505	0.17984931	0.00022742184
0.11885041	9.6726751	0.19575842	0.00022741863
0.11904735	10.059919	0.20239964	0.00022741576
0.11924428	10.168429	0.205084	0.00022741576
0.11944122	9.900485	0.19911596	0.00022741576
0.11963815	9.3688059	0.18880612	0.00022741576
0.11983509	8.6488552	0.17335053	0.00022741863
0.12003203	7.8109856	0.15696691	0.00022741576
0.12022896	6.9349856	0.13978644	0.00022741576
0.12042589	6.1271257	0.12327527	0.00022741576
0.12062283	5.4917836	0.10993575	0.00022741576
0.12081976	4.8114719	0.096352205	0.00022741863
0.1210167	4.1068001	0.082122788	0.00022741576
0.12121364	3.5149434	0.070625059	0.00022740968
0.12141057	2.8998003	0.057925116	0.00022740968
0.1216075	2.3782592	0.047619462	0.00022741576
0.12180444	1.9247612	0.038392264	0.00022741254
0.12200138	1.5045835	0.030027369	0.00022740968
0.12219831	1.1757189	0.023487052	0.00022741576
0.12239525	0.8958416	0.01782091	0.00022741576
0.12259218	0.70155811	0.014016927	0.00022740968
0.12278911	0.57500994	0.011464955	0.00022741254
0.12298606	0.45909452	0.0091439597	0.00022740968
0.12318299	0.3824228	0.0076044034	0.00022740968
0.12337992	0.31581011	0.0062506068	0.00022740968
0.12357686	0.27251092	0.0054231556	0.00022740968
0.12377379	0.24022126	0.0047706719	0.00022740646
0.12397073	0.22424003	0.0044508697	0.00022740968
0.12416767	0.18774548	0.0037165124	0.00022740359
0.1243646	0.18691222	0.0036955695	0.00022740359
0.12456153	0.16876972	0.0033472141	0.00022740359
0.12475847	0.14341693	0.0028347482	0.00022740646
0.12495541	0.14246359	0.0028218038	0.00022739463
0.12515233	0.12822518	0.0025308044	0.00022740323
0.12534928	0.12183729	0.0023997843	0.00022739751
0.12554622	0.11536957	0.0022774208	0.00022739751
0.12574315	0.099494755	0.0019569895	0.00022739751
0.12594008	0.10238374	0.0020199877	0.00022739751
0.12613702	0.10454722	0.0020568925	0.00022740968
0.12633395	0.079532161	0.0015663195	0.00022740968
0.12653089	0.08365608	0.0016419576	0.00022739751
0.12672782	0.094667695	0.0018566038	0.00022739751
0.12692475	0.091121495	0.001793984	0.00022739751
0.12712169	0.067381315	0.0013146193	0.00022740323
0.12731864	0.083203733	0.0016367029	0.00022739751
0.12751557	0.080415547	0.0015731823	0.00022739751
0.1277125	0.072307691	0.0014138416	0.00022739751
0.12790944	0.062186174	0.0012179781	0.00022739751
0.12810637	0.064590544	0.0012620485	0.00022739751
0.1283033	0.057110004	0.0011137828	0.00022739751
0.12850024	0.068608664	0.0013390303	0.00022739751
0.12869717	0.071892925	0.0014015329	0.00022738535
0.12889411	0.055320784	0.0010797429	0.00022739751
0.12909104	0.054012932	0.0010490143	0.00022740323
0.12928799	0.055598158	0.0010843116	0.00022739751
0.12948492	0.046608564	0.00090328342	0.00022739751
0.12968186	0.05082155	0.00098916411	0.00022738535
0.12987879	0.051028181	0.00099174364	0.00022738535
0.13007572	0.056375332	0.0010926551	0.00022738535
0.13027266	0.043378994	0.00084210519	0.00022738535
0.13046959	0.049886622	0.00096592645	0.00022738535
0.13066652	0.044747818	0.00086748559	0.00022738535
0.13086346	0.037807185	0.00073098752	0.00022739751
0.13106039	0.046886723	0.00090378366	0.00022740323
0.13125734	0.047148287	0.00091510388	0.00022738535
0.13145427	0.044327572	0.00085523038	0.00022738535
0.13165121	0.032768361	0.00063223386	0.00022738535
0.13184814	0.039340578	0.00075744558	0.00022738535
0.13204508	0.040135033	0.00077319879	0.00022738535
0.13224201	0.043051358	0.00083284039	0.00022738535
0.13243894	0.044095665	0.0008484039	0.00022738535
0.13263588	0.034649778	0.00066471595	0.00022738535
0.13283281	0.045250561	0.00087100995	0.00022738535
0.13302974	0.045658682	0.0008792943	0.00022739106
0.13322669	0.041417912	0.00079613656	0.00022738535
0.13342363	0.037435137	0.00071704964	0.00022738535
0.13362056	0.04678797	0.00089790102	0.00022738535
0.13381749	0.038762581	0.00074432162	0.00022737318
0.13401443	0.034970239	0.00067064667	0.00022737318
0.13421136	0.031539887	0.0006035681	0.00022738535
0.1344083	0.042372882	0.00080940948	0.00022737318
0.13460523	0.034737621	0.00066388934	0.00022737318
0.13480216	0.030483272	0.00058337377	0.00022737318
0.1349991	0.029629629	0.00056639354	0.0002273789
0.13519605	0.029916089	0.00056776532	0.00022737318
0.13539298	0.037763793	0.00072242058	0.00022737318
0.13558991	0.03882784	0.00073948101	0.00022737318
0.13578685	0.028298419	0.00053878612	0.00022737318
0.13598378	0.036616623	0.00069693959	0.00022737318
0.13618071	0.0320324	0.00061113352	0.00022737318
0.13637765	0.036616623	0.0006968691	0.00022737318
0.13657458	0.040555354	0.00077107694	0.00022737318
0.13677152	0.034256559	0.00065044261	0.00022737318
0.13696845	0.032703489	0.00061950192	0.00022737318
0.13716538	0.039430451	0.00074960379	0.0002273789
0.13736233	0.046469081	0.00088492897	0.00022737318
0.13755926	0.036127169	0.00068280345	0.00022737318
0.1377562	0.035688274	0.00067725609	0.00022737318
0.13795313	0.035921626	0.00068049016	0.00022736102
0.13815007	0.039003249	0.00073738937	0.00022736102
0.138347	0.034807831	0.00065902044	0.00022737318
0.13854393	0.037769783	0.00071240048	0.00022737318
0.13874087	0.039999999	0.00075879949	0.00022736102
0.1389378	0.036823105	0.00069559319	0.00022736102
0.13913473	0.032246508	0.00060694013	0.00022736673
0.13933168	0.030553559	0.00057555543	0.00022737318
0.13952862	0.032675046	0.00061555934	0.00022737318
0.13972555	0.030523255	0.00057789439	0.00022736102
0.13992248	0.031717747	0.0005953486	0.00022736102
0.14011942	0.030835425	0.00057978753	0.00022736102
0.14031635	0.038268957	0.0007197723	0.00022737318
0.14051329	0.027113806	0.00050830294	0.00022736102
0.14071022	0.03444564	0.00064868864	0.00022736102
0.14090715	0.030120483	0.00056343927	0.00022736102
0.14110409	0.02463406	0.00046205567	0.00022736673
0.14130104	0.02894925	0.00054348935	0.00022736102
0.14149797	0.027639972	0.00051670737	0.00022736102
0.1416949	0.031571478	0.0005912346	0.00022734885
0.14189184	0.030388692	0.00056793203	0.00022736102
0.14208877	0.031071428	0.00058375852	0.00022736102
0.1422857	0.030840127	0.00057678815	0.00022736102
0.14248264	0.02948403	0.00054894562	0.00022736102
0.14267957	0.027304964	0.00051074842	0.00022736102
0.14287651	0.033391915	0.00062242447	0.00022736102
0.14307344	0.033262562	0.00062226434	0.00022735457
0.14327039	0.029163739	0.00054298365	0.00022736102
0.14346732	0.028501056	0.00053132564	0.00022734885
0.14366426	0.028080028	0.00052270736	0.00022734885
0.14386119	0.031239031	0.00058184523	0.00022736102
0.14405812	0.024168126	0.0004488157	0.00022734885
0.14425506	0.025462156	0.0004719882	0.00022734885
0.14445199	0.024552789	0.00045633526	0.00022734885
0.14464892	0.032292031	0.00060151238	0.00022734885
0.14484586	0.032325339	0.00059916597	0.00022734885
0.14504279	0.034518827	0.00064101606	0.00022735457
0.14523974	0.038355216	0.0007095313	0.00022734885
0.14543667	0.02806033	0.00052232266	0.00022733668
0.14563361	0.028809441	0.00053343171	0.00022734885
0.14583054	0.03163017	0.00058633863	0.00022734885
0.14602748	0.028363887	0.00052438758	0.00022734885
0.14622441	0.023883697	0.0004407269	0.00022733668
0.14642134	0.025915688	0.00047834238	0.00022734885
0.14661828	0.028236914	0.00052039919	0.00022733668
0.14681521	0.034662046	0.00064142683	0.00022733668
0.14701214	0.030355295	0.00056044536	0.0002273424
0.14720909	0.023768516	0.00043800921	0.00022733668
0.14740603	0.028610824	0.00052738067	0.00022733668
0.14760296	0.028610354	0.00052480015	0.00022733668
0.14779989	0.027213227	0.00050146639	0.00022733668
0.14799683	0.026868757	0.00049531314	0.00022733668
0.14819376	0.033997253	0.0006266702	0.00022733668
0.1483907	0.028414926	0.00052251091	0.00022733668
0.14858763	0.021443158	0.00039252054	0.00022733668
0.14878456	0.026451392	0.00048690103	0.00022733668
0.1489815	0.023389831	0.00042749106	0.0002273424
0.14917845	0.028620102	0.00052491768	0.00022733668
0.14937538	0.027285129	0.00050035008	0.00022733668
0.14957231	0.026413817	0.0004821411	0.00022733668
0.14976925	0.022945205	0.00042103467	0.00022733668
0.14996618	0.027300304	0.0004979471	0.00022733668
0.15016311	0.026440678	0.00048352196	0.00022732452
0.15036005	0.02516151	0.00046056061	0.00022732452
0.15055698	0.026617251	0.00048500282	0.00022733668
0.15075392	0.029571719	0.00054171408	0.00022733668
0.15095085	0.025830258	0.0004700108	0.00022733024
0.1511478	0.024924217	0.00045389167	0.00022732452
0.15134473	0.021643559	0.00039447317	0.00022733668
0.15154167	0.023817511	0.000432609	0.00022732452
0.1517386	0.028735632	0.00052480638	0.00022732452
0.15193553	0.023107836	0.00041978262	0.00022732452
0.15213247	0.026218487	0.00047712089	0.00022733668
0.1523294	0.028159572	0.00051222404	0.00022732452
0.15252633	0.029990003	0.00054421771	0.00022732452
0.15272327	0.027433924	0.00049865758	0.00022732452
0.1529202	0.027360694	0.0004965124	0.00022733024
0.15311715	0.026492286	0.00048166924	0.00022732452
0.15331408	0.025257561	0.00045700261	0.00022732452
0.15351102	0.020944148	0.00037880035	0.00022732452
0.15370795	0.020299502	0.00036712049	0.00022731235
0.15390489	0.024292845	0.00043993167	0.00022732452
0.15410182	0.024148198	0.00043609084	0.00022732452
0.15429875	0.028903654	0.00052352907	0.00022732452
0.15449569	0.028552458	0.00051688222	0.00022731235
0.15469262	0.027134348	0.0004902893	0.00022731235
0.15488955	0.024703557	0.0004450141	0.00022731809
0.1550865	0.023715414	0.0004273949	0.00022732452
0.15528344	0.027501658	0.00049664255	0.00022731235
0.15548037	0.025836369	0.00046696086	0.00022731235
0.1556773	0.024262294	0.00043617163	0.00022731235
0.15587424	0.029654035	0.0005351642	0.00022731235
0.15607117	0.026762402	0.00047987964	0.00022731235
0.1562681	0.022749752	0.00040979951	0.00022731235
0.15646504	0.025295664	0.00045549363	0.00022732452
0.15666197	0.025179856	0.00045229154	0.00022731235
0.15685891	0.023864008	0.00042776141	0.00022731809
0.15705585	0.019249592	0.00034459674	0.00022731235
0.15725279	0.025867714	0.00046481029	0.00022731235
0.15744972	0.029908972	0.00053610047	0.00022731235
0.15764666	0.028645834	0.00051316625	0.00022731235
0.15784359	0.021967214	0.0003944021	0.00022731235
0.15804052	0.021076525	0.00037638482	0.00022731235
0.15823746	0.026392963	0.0004728887	0.00022731235
0.15843439	0.028010303	0.00049924268	0.00022731235
0.15863132	0.024643321	0.00044019942	0.00022730019
0.15882826	0.023778502	0.00042562667	0.00022731809
0.15902521	0.023594053	0.00042076368	0.00022730019
0.15922214	0.025915127	0.00046335909	0.00022730019
0.15941907	0.028864658	0.00051342207	0.00022731235
0.15961601	0.024279702	0.0004336873	0.00022730019
0.15981294	0.022858983	0.00040683756	0.00022730019
0.16000988	0.025756599	0.00045874977	0.00022730019
0.16020681	0.020611916	0.00036642281	0.00022730019
0.16040374	0.023404937	0.00041595224	0.00022730019
0.16060068	0.022566086	0.00040166164	0.00022730019
0.16079761	0.024561403	0.0004352073	0.00022730592
0.16099456	0.022328548	0.00039525356	0.00022730019
0.16119149	0.020276794	0.00036009838	0.00022730019
0.16138843	0.027182603	0.00048263371	0.00022730019
0.16158536	0.02403076	0.00042687962	0.00022730019
0.16178229	0.027645377	0.00048905797	0.00022728802
0.16197923	0.021059349	0.00037224547	0.00022728802
0.16217616	0.022568341	0.00039918275	0.00022728802
0.1623731	0.023877745	0.00042250298	0.00022728802
0.16257003	0.025706125	0.00045468871	0.00022728802
0.16276696	0.024777636	0.0004383316	0.00022730592
0.16296391	0.023506988	0.00041557563	0.00022728802
0.16316085	0.027839292	0.00049106433	0.00022730019
0.16335778	0.021195823	0.00037363949	0.00022728802
0.16355471	0.022376301	0.00039417742	0.00022728802
0.16375165	0.021304067	0.00037901982	0.00022728802
0.16394858	0.026814912	0.0004815108	0.00022728802
0.16414551	0.021873979	0.00039180473	0.00022728802
0.16434245	0.018506279	0.00033324337	0.00022728802
0.16453938	0.025930852	0.00046944665	0.00022728802
0.16473632	0.030404277	0.00055237755	0.00022729376
0.16493326	0.026280323	0.0004787301	0.00022728802
0.1651302	0.021133848	0.00038386058	0.00022727586
0.16532713	0.029753761	0.00054650486	0.00022728802
0.16552407	0.020649966	0.00037656681	0.00022727586
0.165721	0.024745762	0.00045186246	0.00022728802
0.16591793	0.021970477	0.00040294364	0.00022727586
0.16611487	0.023997257	0.00044065958	0.00022727586
0.1663118	0.019444445	0.00035855506	0.00022728802
0.16650873	0.027157098	0.00049999682	0.00022728802
0.16670567	0.024112986	0.00044385146	0.00022728159
0.16690262	0.024313997	0.00044969347	0.00022727586
0.16709955	0.025774991	0.00047759726	0.00022727586
0.16729648	0.021769663	0.00040405174	0.00022727586
0.16749342	0.020891365	0.00038575978	0.00022727586
0.16769035	0.026232949	0.0004865386	0.00022727586
0.16788729	0.023305085	0.00043396596	0.00022727586
0.16808422	0.022948539	0.0004242424	0.00022727586
0.16828115	0.021253984	0.00039629717	0.00022727586
0.16847809	0.027046014	0.0005030685	0.00022726369
0.16867502	0.026146132	0.00049122935	0.00022728159
0.16887197	0.02412203	0.0004505564	0.00022727586
0.1690689	0.021186441	0.00039463257	0.00022726369
0.16926584	0.025230987	0.00047207056	0.00022727586
0.16946277	0.023860399	0.00044647738	0.00022727586
0.1696597	0.015821647	0.00029601727	0.00022726369
0.16985664	0.02066263	0.00038634092	0.00022726369
0.17005357	0.024651662	0.00046186015	0.00022727586
0.17025051	0.025871363	0.0004863209	0.00022726369
0.17044744	0.014342058	0.00026803336	0.00022726369
0.17064437	0.018378379	0.00034482652	0.00022726943
0.17084132	0.025917927	0.00048744318	0.00022727586
0.17103826	0.026593806	0.00050342089	0.00022726369
0.17123519	0.031125588	0.00058783015	0.00022726369
0.17143212	0.024126755	0.0004539752	0.00022726369
0.17162906	0.02859211	0.00054032693	0.00022726369
0.17182599	0.024178997	0.00045555388	0.00022726369
0.17202292	0.024300441	0.00046228222	0.00022726369
0.17221986	0.026497278	0.00050049095	0.00022726369
0.17241679	0.039737515	0.00075467397	0.00022726369
0.17261373	0.036091872	0.00068533415	0.00022725726
0.17281067	0.02511831	0.00047513953	0.00022726369
0.17300761	0.024578137	0.00046677614	0.00022726369
0.17320454	0.025874635	0.0004897574	0.00022725153
0.17340147	0.027695717	0.00052799133	0.00022725153
0.17359841	0.023958717	0.0004562923	0.00022725153
0.17379534	0.02937936	0.00055878854	0.00022726369
0.17399228	0.02310231	0.00043839079	0.00022726369
0.17418921	0.023093842	0.00043826216	0.00022725153
0.17438614	0.025679195	0.00049124961	0.00022725153
0.17458308	0.028023599	0.00053429115	0.00022725726
0.17478003	0.019252129	0.0003669275	0.00022725153
0.17497696	0.024029575	0.00045820797	0.00022725153
0.17517389	0.024246877	0.00046075441	0.00022725153
0.17537083	0.033345822	0.00064144866	0.00022723936
0.17556776	0.019940916	0.00037877139	0.00022723936
0.17576469	0.020119226	0.00038372897	0.00022723936
0.17596163	0.020553064	0.00039362613	0.00022725153
0.17615856	0.025974026	0.00049601577	0.00022725153
0.1763555	0.022329737	0.00042700744	0.00022725153
0.17655243	0.023385301	0.00044635683	0.00022724509
0.17674938	0.020661157	0.0003962008	0.00022723936
0.17694631	0.022122234	0.00042405687	0.00022723936
0.17714325	0.022446688	0.00042987984	0.00022725153
0.17734018	0.018775817	0.00035951723	0.00022723936
0.17753711	0.026031982	0.00049840019	0.00022723936
0.17773405	0.031179564	0.00059980823	0.00022723936
0.17793098	0.025283018	0.00048700217	0.00022723936
0.17812791	0.021013133	0.00040320773	0.00022723936
0.17832485	0.023317037	0.00044824989	0.00022723936
0.17852178	0.025969138	0.00049948739	0.00022724509
0.17871873	0.021895055	0.00042052596	0.00022723936
0.17891566	0.024454476	0.00046973649	0.00022723936
0.1791126	0.026445033	0.00050999358	0.00022722721
0.17930953	0.029067572	0.00056061603	0.00022723936
0.17950647	0.025018955	0.00048226124	0.00022723936
0.1797034	0.030623818	0.00059050479	0.00022723936
0.17990033	0.029800076	0.00057418458	0.00022723936
0.18009727	0.0243346	0.00046994368	0.00022722721
0.1802942	0.024990534	0.00048189063	0.00022722721
0.18049113	0.02640643	0.00051226764	0.00022723294
0.18068808	0.028798787	0.00055612676	0.00022722721
0.18088502	0.028419856	0.00054903456	0.00022722721
0.18108195	0.025914634	0.00050181919	0.00022722721
0.18127888	0.026605854	0.00051486684	0.00022722721
0.18147582	0.018320611	0.000353771	0.00022722721
0.18167275	0.022382397	0.00043156027	0.00022722721
0.18186969	0.029118774	0.000565522	0.00022722721
0.18206662	0.029141104	0.00056647143	0.00022722721
0.18226355	0.024224073	0.00046732591	0.00022721505
0.18246049	0.020329881	0.00039403801	0.00022723294
0.18265744	0.025200458	0.00048831833	0.00022721505
0.18285437	0.023059186	0.00044746976	0.00022722721
0.1830513	0.021931512	0.00042541657	0.00022722721
0.18324824	0.020952381	0.00040501804	0.00022721505
0.18344517	0.023827825	0.00046318394	0.00022721505
0.1836421	0.026840491	0.00052136922	0.00022721505
0.18383904	0.027692307	0.0005385651	0.00022721505
0.18403597	0.023827825	0.00046232497	0.00022721505
0.18423291	0.014621008	0.00028305236	0.00022721505
0.18442984	0.020922123	0.00040721573	0.00022722078
0.18462679	0.021855827	0.00042334929	0.00022721505
0.18482372	0.02198226	0.00042729723	0.00022721505
0.18502066	0.021906227	0.0004250819	0.00022721505
0.18521759	0.01778809	0.00034570554	0.00022721505
0.18541452	0.017041054	0.00033124609	0.00022721505
0.18561146	0.02198226	0.00042716292	0.00022721505
0.18580839	0.022744795	0.00044143651	0.00022721505
0.18600532	0.025551684	0.00049844739	0.00022720288
0.18620226	0.020566551	0.00040064796	0.00022721505
0.18639919	0.029821843	0.00058228144	0.00022722078
0.18659614	0.033720929	0.00065912202	0.00022720288
0.18679307	0.023010921	0.00045013154	0.00022720288
0.18699001	0.030537302	0.00059543172	0.00022720288
0.18718694	0.036950603	0.00072373165	0.00022720288
0.18738388	0.032642089	0.00063468277	0.00022720288
0.18758081	0.021577088	0.00042241145	0.00022721505
0.18777774	0.025650991	0.00050100492	0.00022720288
0.18797468	0.025311526	0.00049429055	0.00022720288
0.18817161	0.025331255	0.00049522746	0.00022719071
0.18836854	0.030959751	0.00060438766	0.00022720861
0.18856549	0.020849725	0.00040880308	0.00022719071
0.18876243	0.021019852	0.00041021651	0.00022720288
0.18895936	0.021832358	0.00042674085	0.00022720288
0.18915629	0.023837436	0.00046692253	0.00022719071
0.18935323	0.017571261	0.0003427077	0.00022719071
0.18955016	0.019223224	0.00037627836	0.00022720288
0.1897471	0.021375826	0.00041721875	0.00022719071
0.18994403	0.026212832	0.00051365007	0.00022720288
0.19014096	0.030720755	0.00060537196	0.00022719071
0.1903379	0.021019852	0.00041021651	0.00022719646
0.19053484	0.020086648	0.00039447608	0.00022719071
0.19073178	0.014797508	0.00028798881	0.00022719071
0.19092871	0.023603462	0.00046393316	0.00022719071
0.19112565	0.016205534	0.00031790452	0.00022719071
0.19132258	0.021044428	0.00041122429	0.00022719071
0.19151951	0.018117368	0.0003548339	0.00022719071
0.19171645	0.01846033	0.00036134376	0.00022719071
0.19191338	0.020480504	0.00040169226	0.00022717856
0.19211031	0.016470589	0.00032213589	0.00022719071
0.19230725	0.020023556	0.00039246451	0.00022719646
0.1925042	0.018658198	0.00036699919	0.00022719071
0.19270113	0.017702596	0.00034655773	0.00022719071
0.19289806	0.020086648	0.0003941661	0.00022719071
0.193095	0.023893459	0.00046856975	0.00022717856
0.19329193	0.0162763	0.00031998943	0.00022719071
0.19348887	0.018987341	0.00037309417	0.00022717856
0.1936858	0.022021234	0.00043243196	0.00022717856
0.19388273	0.020520916	0.00040349187	0.00022717856
0.19407967	0.020965191	0.00041310446	0.00022717856
0.1942766	0.031088082	0.00061585213	0.0002271843
0.19447355	0.018388106	0.00035939174	0.00022717856
0.19467048	0.01783591	0.00035065803	0.00022717856
0.19486742	0.023338608	0.00045951267	0.0002271664
0.19506435	0.021851411	0.00043107613	0.0002271664
0.19526128	0.015556442	0.00030674622	0.0002271664
0.19545822	0.018409714	0.00036035929	0.0002271664
0.19565515	0.016820185	0.00033264098	0.0002271664
0.19585209	0.016666668	0.00032790616	0.0002271664
0.19604902	0.019002376	0.00037386958	0.0002271664
0.19624595	0.017928287	0.00035374399	0.00022717213
0.1964429	0.027580772	0.00054286444	0.00022717856
0.19663984	0.024439102	0.00048458122	0.0002271664
0.19683677	0.022520743	0.00044309584	0.0002271664
0.1970337	0.022364218	0.00044228727	0.0002271664
0.19723064	0.027810887	0.00054955925	0.0002271664
0.19742757	0.023034154	0.00045473632	0.0002271664
0.1976245	0.017663589	0.00034937952	0.00022715423
0.19782144	0.01821061	0.00035792397	0.0002271664
0.19801837	0.025559105	0.00050611387	0.0002271664
0.19821531	0.026326286	0.00052104349	0.00022715998
0.19841225	0.022691082	0.00044827402	0.0002271664
0.19860919	0.020016013	0.00039572472	0.00022715423
0.19880612	0.018232264	0.00035856265	0.00022715423
0.19900306	0.022114998	0.00043845584	0.00022715423
0.19919999	0.019545274	0.00038577488	0.00022715423
0.19939692	0.021513944	0.00042476691	0.00022715423
0.19959386	0.029435484	0.00058635219	0.0002271664
0.19979079	0.020302547	0.0004006965	0.00022715423
0.19998772	0.018837675	0.00037299938	0.00022715423
0.20018466	0.021132376	0.00041744922	0.00022715998
0.20038161	0.022114998	0.00043904877	0.00022715423
0.20057854	0.023209283	0.00045965408	0.00022715423
0.20077547	0.023571715	0.00046600468	0.00022715423
0.20097241	0.024969794	0.00049609237	0.00022715423
0.20116934	0.020766772	0.00041076573	0.00022715423
0.20136628	0.020523138	0.00040708546	0.00022714208
0.20156321	0.016813451	0.00033128087	0.00022715423
0.20176014	0.024183797	0.00048101405	0.00022714208
0.20195708	0.017213771	0.0003396981	0.00022715423
0.20215401	0.016847173	0.00033247238	0.00022715998
0.20235096	0.015706806	0.00030994244	0.00022714208
0.20254789	0.019207682	0.00037910134	0.00022714208
0.20274483	0.022718053	0.00045267906	0.00022714208
0.20294176	0.021208484	0.00042016461	0.00022714208
0.20313869	0.026677445	0.00053212582	0.00022714208
0.20333563	0.024242423	0.00048290112	0.00022714208
0.20353256	0.025089607	0.00049641938	0.00022712992
0.2037295	0.025588952	0.00051105261	0.00022712992
0.20392643	0.026431719	0.00052429963	0.00022714208
0.20412336	0.023944804	0.0004780938	0.00022714782
0.20432031	0.028617494	0.00057013246	0.00022714208
0.20451725	0.022453889	0.00044495039	0.00022714208
0.20471418	0.030463038	0.00060941203	0.00022712992
0.20491111	0.023590563	0.00046738549	0.00022714208
0.20510805	0.024786672	0.00049482117	0.00022712992
0.20530498	0.029483037	0.00058799807	0.00022712992
0.20550191	0.033721399	0.00067126442	0.00022712992
0.20569885	0.044897959	0.00090207247	0.00022712992
0.20589578	0.033680834	0.00067034207	0.00022712992
0.20609272	0.0395112	0.00079253613	0.00022713565
0.20628966	0.039903264	0.00079664431	0.00022712992
0.2064866	0.046247464	0.00092679396	0.00022711777
0.20668353	0.040243901	0.00080653519	0.00022712992
0.20688047	0.037469782	0.00074715423	0.00022712992
0.2070774	0.036466774	0.00072946871	0.00022711777
0.20727433	0.048731372	0.00097329944	0.00022711777
0.20747127	0.045621183	0.00091592968	0.00022711777
0.2076682	0.037774168	0.00075680984	0.00022712992
0.20786513	0.035569929	0.00071026629	0.00022712992
0.20806207	0.035830621	0.00071790186	0.0002271235
0.20825902	0.035526846	0.00070860464	0.00022711777
0.20845595	0.026894866	0.00053826795	0.00022711777
0.20865288	0.02989899	0.0005962642	0.00022711777
0.20884982	0.026541445	0.00053127011	0.00022711777
0.20904675	0.029698942	0.00059446966	0.00022711777
0.20924369	0.03245436	0.00064919837	0.0002271056
0.20944062	0.02835156	0.00056636968	0.00022711777
0.20963755	0.029995946	0.00059905613	0.00022711777
0.20983449	0.029605264	0.00059591501	0.00022711777
0.21003142	0.028003247	0.00055931596	0.00022711133
0.21022837	0.030130293	0.00060308579	0.00022711777
0.2104253	0.020374898	0.00040708247	0.00022711777
0.21062224	0.021362353	0.00042443749	0.0002271056
0.21081917	0.021837659	0.00043884284	0.0002271056
0.2110161	0.020647774	0.00041112292	0.0002271056
0.21121304	0.021172639	0.00042270831	0.0002271056
0.21140997	0.026498165	0.0005303545	0.0002271056
0.2116069	0.019199347	0.00038326083	0.0002271056
0.21180384	0.029062629	0.00058266451	0.0002271056
0.21200077	0.022222223	0.00044224615	0.00022711133
0.21219772	0.020987654	0.00042131718	0.00022709343
0.21239465	0.017666392	0.00035318578	0.0002271056
0.21259159	0.025588952	0.00051131489	0.0002271056
0.21278852	0.02	0.00039948779	0.0002271056
0.21298546	0.020292208	0.00040444112	0.00022709343
0.21318239	0.018564356	0.00037236107	0.00022709343
0.21337932	0.020698052	0.00041278775	0.00022709343
0.21357626	0.016346546	0.00032594369	0.0002271056
0.21377319	0.017746596	0.00035598926	0.0002271056
0.21397012	0.021571022	0.00043082898	0.00022709918
0.21416707	0.017572537	0.00035076414	0.00022709343
0.21436401	0.021606196	0.00043156935	0.00022709343
0.21456094	0.020131471	0.00040291765	0.00022709343
0.21475787	0.025041051	0.00050204567	0.00022708128
0.21495481	0.025337148	0.00050681236	0.00022709343
0.21515174	0.025809094	0.00051792827	0.00022709343
0.21534868	0.022513304	0.00045126918	0.00022708128
0.21554561	0.023054754	0.00046338426	0.00022709343
0.21574254	0.024509804	0.00049119111	0.00022708128
0.21593948	0.020164609	0.00040425811	0.00022709918
0.21613643	0.018472906	0.00036961262	0.00022708128
0.21633336	0.018860189	0.00037743009	0.00022708128
0.21653029	0.021364009	0.00042861499	0.00022708128
0.21672723	0.01876785	0.00037447989	0.00022709343
0.21692416	0.023917526	0.00048056469	0.00022708128
0.21712109	0.018069815	0.00036150272	0.00022708128
0.21731803	0.021765914	0.00043620539	0.00022708128
0.21751496	0.026348291	0.0005294744	0.00022708128
0.2177119	0.023625255	0.00047178176	0.00022708128
0.21790883	0.019941837	0.00040140332	0.00022708702
0.21810578	0.019607844	0.00039136002	0.00022708128
0.21830271	0.018181818	0.00036506291	0.00022708128
0.21849965	0.020987654	0.00042131718	0.00022706912
0.21869658	0.02618658	0.00052473741	0.00022708128
0.21889351	0.019485904	0.00039187443	0.00022706912
0.21909045	0.022122081	0.00044244036	0.00022706912
0.21928738	0.019397441	0.00038902782	0.00022706912
0.21948431	0.021452146	0.00043094458	0.00022706912
0.21968125	0.016851623	0.00033731299	0.00022706912
0.21987818	0.023111844	0.00046465296	0.00022707487
0.22007513	0.020466639	0.00040950035	0.00022706912
0.22027206	0.019493986	0.00039248221	0.00022706912
0.220469	0.01272578	0.00025369663	0.00022706912
0.22066593	0.016556291	0.00033266479	0.00022705697
0.22086287	0.023466447	0.00047085632	0.00022705697
0.2210598	0.023073753	0.00046350458	0.00022705697
0.22125673	0.014894498	0.00029807369	0.00022705697
0.22145367	0.016115703	0.00032343782	0.00022705697
0.2216506	0.017355371	0.00034844235	0.00022706912
0.22184753	0.020164609	0.0004047752	0.00022707487
0.22204448	0.016597511	0.00033347966	0.00022705697
0.22224142	0.021864686	0.00043949814	0.00022705697
0.22243835	0.021855671	0.00043938591	0.00022705697
0.22263528	0.026533997	0.00053534913	0.00022705697
0.22283222	0.018914474	0.00037869386	0.00022704482
0.22302915	0.024562864	0.00049599889	0.00022705697
0.22322609	0.0251962	0.00050616253	0.00022704482
0.22342302	0.01972873	0.00039516116	0.00022704482
0.22361995	0.01992528	0.00040090349	0.00022705697
0.22381689	0.020644097	0.00041449891	0.0002270627
0.22401384	0.022546973	0.00045588927	0.00022704482
0.22421077	0.021810699	0.0004373932	0.00022704482
0.2244077	0.023188407	0.0004671161	0.00022704482
0.22460464	0.030378694	0.00061499822	0.00022704482
0.22480157	0.019301848	0.00038633458	0.00022704482
0.2249985	0.021802936	0.0004415595	0.00022704482
0.22519544	0.021311475	0.00042622769	0.00022704482
0.22539237	0.02079002	0.00041924539	0.00022704482
0.22558931	0.019238813	0.00038847743	0.00022704482
0.22578624	0.01675521	0.00033360429	0.00022703838
0.22598319	0.015410245	0.0003093472	0.00022703265
0.22618012	0.023976849	0.00048206089	0.00022704482
0.22637706	0.015487651	0.00031238666	0.00022704482
0.22657399	0.017405719	0.00034955272	0.00022703265
0.22677092	0.024046434	0.00048519086	0.00022703265
0.22696786	0.021558871	0.00043432915	0.00022703265
0.22716479	0.015734989	0.00031556457	0.00022704482
0.22736172	0.015474697	0.00031152525	0.00022703265
0.22755866	0.017768595	0.00035645356	0.00022703265
0.22775559	0.014208107	0.00028492406	0.00022703265
0.22795253	0.019071311	0.00038341439	0.00022703838
0.22814947	0.022840532	0.00046036742	0.00022703265
0.22834641	0.016998341	0.0003404743	0.00022703265
0.22854334	0.017033651	0.00034216547	0.0002270205
0.22874027	0.016813787	0.00034001996	0.00022703265
0.22893721	0.016921172	0.00033878145	0.00022703265
0.22913414	0.016222961	0.00032623147	0.0002270205
0.22933108	0.022425249	0.00045220199	0.0002270205
0.22952801	0.018757816	0.00037858056	0.0002270205
0.22972494	0.013744273	0.00027600856	0.0002270205
0.22992188	0.014096186	0.00028232217	0.00022703838
0.23011883	0.020710059	0.00042095306	0.0002270205
0.23031576	0.017753921	0.00035601208	0.0002270205
0.23051269	0.017062007	0.00034302028	0.0002270205
0.23070963	0.02	0.00040280184	0.0002270205
0.23090656	0.013266998	0.00026459392	0.00022700834
0.23110349	0.016778523	0.00033807821	0.00022700834
0.23130043	0.02252816	0.00045483987	0.0002270205
0.23149736	0.023294508	0.00047047934	0.0002270205
0.2316943	0.020885548	0.00042144716	0.0002270205
0.23189123	0.02158572	0.00043431783	0.00022701408
0.23208818	0.018021794	0.00036410079	0.00022700834
0.23228511	0.014987511	0.00030158949	0.00022700834
0.23248205	0.021730047	0.00043951289	0.00022700834
0.23267898	0.022622539	0.00045818338	0.00022700834
0.23287591	0.019950125	0.00040201115	0.00022700834
0.23307285	0.018402342	0.00037152867	0.00022700834
0.23326978	0.021684738	0.00043813884	0.00022700834
0.23346671	0.016277129	0.00032831033	0.00022700834
0.23366365	0.022708159	0.00046062586	0.00022700834
0.23386058	0.020033389	0.00040399114	0.00022701408
0.23405753	0.016928159	0.00033940646	0.00022699618
0.23425446	0.020193521	0.00040920952	0.00022700834
0.2344514	0.018036913	0.00036496395	0.00022699618
0.23464833	0.013790222	0.00027686713	0.00022699618
0.23484527	0.013377926	0.00026846488	0.00022700834
0.2350422	0.016304348	0.00032846737	0.00022700834
0.23523913	0.016799664	0.00033893622	0.00022699618
0.23543607	0.013738551	0.00027531225	0.00022699618
0.235633	0.016304348	0.00032868981	0.00022699618
0.23582993	0.021365732	0.00043258443	0.00022700192
0.23602688	0.024421053	0.00049612334	0.00022698403
0.23622382	0.026677782	0.00053930428	0.00022699618
0.23642075	0.024624374	0.00049771729	0.00022699618
0.23661768	0.024308465	0.00049239688	0.00022698403
0.23681462	0.013468013	0.00027173111	0.00022698403
0.23701155	0.016297534	0.00032826146	0.00022699618
0.23720849	0.018379282	0.00037083041	0.00022698403
0.23740542	0.024349287	0.00049363787	0.00022699618
0.23760235	0.027253669	0.00055293384	0.00022698403
0.23779929	0.021839563	0.00044284022	0.00022698977
0.23799624	0.025876461	0.0005233601	0.00022698403
0.23819317	0.022278268	0.00045186424	0.00022698403
0.2383901	0.021410579	0.0004339474	0.00022698403
0.23858704	0.030163385	0.00061200728	0.00022698403
0.23878397	0.01969824	0.00039774296	0.00022698403
0.2389809	0.021392617	0.00043374195	0.00022697187
0.23917784	0.02059689	0.00041786267	0.00022697187
0.23937477	0.020219039	0.00041053235	0.00022698403
0.23957171	0.017587939	0.00035547061	0.00022697187
0.23976864	0.01793161	0.0003615715	0.00022697762
0.23996559	0.021052632	0.00042686539	0.00022697187
0.24016252	0.017343486	0.00035132939	0.00022697187
0.24035946	0.021303792	0.00043434993	0.00022697187
0.24055639	0.020287406	0.00041225026	0.00022697187
0.24075332	0.025979556	0.00053053658	0.00022697187
0.24095026	0.02016302	0.00041305381	0.00022697187
0.24114719	0.025106383	0.00051315618	0.00022697187
0.24134412	0.023982869	0.00049180957	0.00022697187
0.24154106	0.023295945	0.00047812451	0.00022697187
0.24173799	0.029779889	0.00061312504	0.00022696547
0.24193494	0.027777778	0.00057386199	0.00022697187
0.24213187	0.020223752	0.00041453732	0.00022695972
0.24232881	0.025360735	0.00052567309	0.00022697187
0.24252574	0.018801924	0.00038864635	0.00022695972
0.24272268	0.015283843	0.00031459358	0.00022695972
0.24291961	0.011448701	0.00023562784	0.00022695972
0.24311654	0.016100958	0.00033062923	0.00022695972
0.24331348	0.02532208	0.00052813726	0.00022695972
0.24351041	0.020723104	0.00042958817	0.00022695972
0.24370734	0.019366197	0.0004013138	0.00022696547
0.24390429	0.028469751	0.00059514551	0.00022695972
0.24410123	0.026386404	0.00055290229	0.00022695972
0.24429816	0.015097691	0.00031350198	0.00022694757
0.24449509	0.01142074	0.00023922481	0.00022694757
0.24469203	0.015207374	0.00032154549	0.00022695972
0.24488896	0.015932521	0.00033895517	0.00022694757
0.2450859	0.017865539	0.00038124528	0.00022694757
0.24528283	0.017037388	0.0003646719	0.00022694757
0.24547976	0.012875536	0.000275978	0.00022694757
0.2456767	0.018286815	0.00039593954	0.0002269533
0.24587364	0.015873017	0.00034191439	0.00022694757
0.24607058	0.018941233	0.00041130514	0.0002269354
0.24626751	0.016472869	0.0003566659	0.00022694757
0.24646445	0.021171836	0.00046389474	0.00022694757
0.24666138	0.024570024	0.00053843454	0.00022694757
0.24685831	0.017760238	0.00038905573	0.0002269354
0.24705525	0.023348236	0.00051447935	0.0002269354
0.24725218	0.021467797	0.00047365748	0.0002269354
0.24744911	0.022624435	0.00050124549	0.00022694757
0.24764605	0.015992004	0.00034946794	0.00022694115
0.247843	0.021148037	0.00046871055	0.0002269354
0.24803993	0.022494888	0.00050241058	0.0002269354
0.24823686	0.020502307	0.00045815154	0.0002269354
0.2484338	0.017820774	0.00039610162	0.00022692325
0.24863073	0.020576132	0.00046092435	0.0002269354
0.24882767	0.022119341	0.00049511215	0.00022692325
0.2490246	0.019658562	0.00044069547	0.00022692325
0.24922153	0.016196446	0.00036428566	0.00022692325
0.24941847	0.02646601	0.00059641519	0.00022692325
0.2496154	0.015287296	0.00034412733	0.000226929
0.24981235	0.021119324	0.00047899221	0.00022692965
0.25000927	0.01148825	0.00025599953	0.00022692325
0.2502062	0.020266667	0.00046130476	0.0002269354
0.25040314	0.020656779	0.00046907566	0.0002269111
0.25060007	0.021092482	0.00048399731	0.0002269226
0.25079703	0.018696582	0.00042494541	0.0002269111
0.25099397	0.017732402	0.00040449901	0.0002269111
0.2511909	0.01953337	0.00044840469	0.0002269111
0.25138783	0.01453958	0.00033071061	0.0002269111
0.25158477	0.019618528	0.00045134081	0.0002269111
0.2517817	0.013646288	0.00031090205	0.0002269111
0.25197864	0.01589041	0.00036424387	0.0002269111
0.25217557	0.020498615	0.00047569693	0.0002269111
0.2523725	0.020856202	0.00048226898	0.0002269111
0.25256944	0.022234574	0.00051743729	0.0002269111
0.25276637	0.019988894	0.00046418418	0.0002269111
0.2529633	0.022333892	0.00052090874	0.0002268868
0.25316024	0.020833334	0.00048739792	0.0002269111
0.25335717	0.018192155	0.00042618994	0.0002269111
0.25355411	0.029876977	0.00071565906	0.0002269111
0.25375104	0.023465704	0.00056795642	0.0002269111
0.25394797	0.018115941	0.00043681706	0.0002268868
0.25414491	0.027641278	0.00067590387	0.0002269111
0.25434184	0.026565464	0.00066032255	0.0002269111
0.25453877	0.018880209	0.0004717611	0.0002269226
0.25473574	0.022834117	0.00058213639	0.0002268868
0.25493267	0.02520436	0.00064909906	0.0002269111
0.25512961	0.022948539	0.0005961351	0.0002269111
0.25532654	0.020581974	0.00053830718	0.0002269111
0.25552347	0.029133284	0.00077563466	0.0002268868
0.25572041	0.025757575	0.00069809204	0.0002269111
0.25591734	0.022690438	0.00063370768	0.0002269111
0.25611427	0.012897679	0.00036378845	0.0002268868
0.25631121	0.028310502	0.00084020011	0.0002268868
0.25650814	0.023562677	0.0007090997	0.0002268868
0.25670508	0.016456923	0.00049698615	0.0002268868
0.25690201	0.025369979	0.00080497656	0.0002268868
0.25709894	0.015712682	0.00049909548	0.0002268868
0.25729588	0.012987013	0.00041791153	0.0002268868
0.25749281	0.017985612	0.00059916044	0.0002268868
0.25768974	0.023899371	0.00081826176	0.0002268868
0.25788668	0.023285899	0.00080912444	0.0002268868
0.25808361	0.021361817	0.00074993458	0.0002268868
0.25828055	0.036935706	0.0013338313	0.0002268868
0.25847748	0.030042918	0.0011044391	0.00022689829
0.25867444	0.027656477	0.001021738	0.00022686248
0.25887138	0.024464833	0.00091532135	0.00022686248
0.25906831	0.016975308	0.0006304995	0.00022686248
0.25926524	0.023771791	0.0009062207	0.0002268868
0.25946218	0.025083613	0.00097752246	0.00022686248
0.25965911	0.027164686	0.0010756031	0.0002268868
0.25985605	0.010398613	0.00039552466	0.0002268868
0.26005298	0.008680556	0.0003237864	0.00022686248
0.26024991	0.024475524	0.00097610359	0.00022686248
0.26044685	0.014285714	0.00056519732	0.0002268868
0.26064378	0.021390375	0.00085884501	0.00022686248
0.26084071	0.028776979	0.0011678489	0.00022686248
0.26103765	0.020257827	0.00082965376	0.00022686248
0.26123458	0.027777778	0.0011559033	0.00022686248
0.26143152	0.024528302	0.00102461	0.0002268868
0.26162845	0.024029575	0.0009935007	0.00022686248
0.26182538	0.021032505	0.00087772688	0.00022686248
0.26202232	0.031311154	0.0013368494	0.00022686248
0.26221925	0.017857144	0.00075067463	0.00022686248
0.26241618	0.024856597	0.0010385405	0.00022684968
0.26261315	0.019841271	0.00082990201	0.00022683818
0.26281008	0.020325202	0.0008701926	0.00022686248
0.26300701	0.012320329	0.00051016838	0.00022686248
0.26320395	0.018108651	0.00076660037	0.00022683818
0.26340088	0.035940804	0.0015930715	0.00022686248
0.26359782	0.016736401	0.00069073995	0.00022683818
0.26379475	0.008547009	0.00034252033	0.00022686248
0.26399168	0.010683761	0.00044219184	0.00022683818
0.26418862	0.023913043	0.0010545027	0.00022683818
0.26438555	0.017897092	0.00079271867	0.00022683818
0.26458248	0.016018307	0.00071023154	0.00022683818
0.26477942	0.011210762	0.00047533537	0.00022683818
0.26497635	0.0069930069	0.00027599197	0.00022686248
0.26517329	0.016317016	0.00073020614	0.00022683818
0.26537022	0.019559903	0.00090581732	0.00022683818
0.26556715	0.014423077	0.00064631354	0.00022683818
0.26576409	0.014851485	0.00067534664	0.00022683818
0.26596102	0.005050505	0.00017968891	0.00022683818
0.26615795	0.010362694	0.00045737554	0.00022683818
0.26635489	0.010230179	0.000448623	0.00022684968
0.26655185	0.0132626	0.00061175809	0.00022681388
0.26674879	0.010958904	0.00049744733	0.00022683818
0.26694572	0.013513514	0.00059692719	0.00022683818
0.26714265	0.024657534	0.001218492	0.00022681388
0.26733959	0.02259887	0.0011251317	0.00022681388
0.26753652	0.011428571	0.00052979746	0.00022681388
0.26773345	0.012084592	0.00057611032	0.00022683818
0.26793039	0.011940299	0.00056581257	0.00022683818
0.26812732	0.020710059	0.0010444629	0.00022683818
0.26832426	0.018750001	0.00095833046	0.00022683818
0.26852119	0.022222223	0.0011610456	0.00022683818
0.26871812	0.025723472	0.0013666357	0.00022683818
0.26891506	0.041800644	0.002266309	0.00022681388
0.26911199	0.026936026	0.0014645079	0.00022683818
0.26930892	0.046979867	0.0026268859	0.00022683818
0.26950586	0.038062282	0.0021384656	0.00022683818
0.26970279	0.030927835	0.0017122779	0.00022681388
0.26989973	0.032608695	0.0018539194	0.00022681388
0.27009666	0.014981274	0.00079549698	0.00022681388
0.27029359	0.011450382	0.0005787008	0.00022684968
0.27049056	0.018315019	0.00099327136	0.00022681388
0.27068749	0.015564202	0.00084243715	0.00022681388
0.27088442	0.020080321	0.0011404855	0.00022681388
0.27108136	0.033472802	0.0020295868	0.00022681388
0.27127829	0.025210084	0.0014948909	0.00022681388
0.27147523	0	0	0.00022681388
0.27167216	0.011363637	0	0.00022681388
0.27186909	0	0	0.00022681388
0.27206603	0	0	0.00022681388
0.27226296	0	0	0.00022681388
