#   DataFileName=PAL30_120C_WAXS_08172017.tif
#   DataFileType=.tif
#   
#   DataFilePath=E:DATA:PAL30_08262017:
#   
#   Processed on=Wed, Jan 16, 2019,2:42:38 AM
#   Units=Arbitrary
#   SampleThickness=1
#   SampleTransmission=1
#   CorrectionFactor=1
#   SampleMeasurementTime=1
#   EmptyMeasurementTime=1
#   BackgroundMeasTime=1
#   SampleI0=1
#   EmptyI0=1
#   Nika_SampleToDetectorDistacne=1552.1
#   Nika_Wavelength=1.54
#   Nika_XrayEnergy=8.0509
#   Nika_PixelSizeX=0.075
#   Nika_PixelSizeY=0.075
#   Nika_HorizontalTilt=0
#   Nika_VerticalTilt=0
#   Nika_BeamCenterX=1540.3
#   Nika_BeamCenterY=830.17
#   Nika_BeamSizeX=0
#   Nika_BeamCenterY=830.17
#   CalibrationFormula=1*((Sa2D))
#   CurrentMaskFileName=PAL30_30C_WAXS_mask.hdf
#   QvectorMaxNumPnts=1
#   QvectorNumberPoints=1383
#   CircularAverage=1
#   PolarizationCorrection=None
#   UncertainityCalculationMethod=OldNikaMethod

0.0060065244	6.5	4.472136	0.00022756745
0.00620346	4.52	0.89881402	0.00022756765
0.0064003952	3.122807	0.41156018	0.00022756765
0.0065973303	3.45	0.38445362	0.00022756765
0.0067942655	5.1632652	0.51747191	0.00022756765
0.0069912006	7.261682	0.68619066	0.00022756745
0.0071881362	7.9918032	0.70297998	0.00022756727
0.0073850714	8.8167934	0.74727929	0.00022756727
0.0075820065	8.7103453	0.70813644	0.00022756727
0.0077789417	8.5578232	0.69350833	0.00022756745
0.0079758773	7.4873419	0.58591628	0.00022756746
0.0081728119	6.8466258	0.52849001	0.00022756707
0.0083697475	5.7696629	0.42513227	0.00022756671
0.0085666822	4.658031	0.32992628	0.00022756783
0.0087636178	4.5282049	0.31916875	0.00022756783
0.0089605534	3.772512	0.25591707	0.00022756746
0.0091574881	3.5021834	0.2284238	0.00022756707
0.0093544237	3.1240001	0.19538352	0.00022756671
0.0095513584	2.7224336	0.16589434	0.00022756707
0.009748294	2.6764705	0.16039611	0.00022756707
0.0099452296	2.1732852	0.12864777	0.00022756595
0.010142164	2.1079137	0.12466381	0.00022756707
0.0103391	2.0538721	0.11789743	0.00022756671
0.010536035	1.8813559	0.10848323	0.00022756707
0.01073297	1.6907895	0.096200503	0.00022756783
0.010929906	1.6881028	0.094861723	0.00022756746
0.01112684	1.4408946	0.080717243	0.00022756783
0.011323776	1.310241	0.071183793	0.00022756746
0.011520711	1.4146341	0.077445388	0.00022756707
0.011717646	1.2100592	0.06530986	0.00022756707
0.011914582	1.0906433	0.058408748	0.00022756746
0.012111517	1.0695652	0.057113215	0.00022756783
0.012308452	1.0851648	0.056391597	0.00022756671
0.012505387	0.9378531	0.049331058	0.00022756783
0.012702323	0.90211642	0.046022769	0.00022756783
0.012899258	0.88471848	0.045481347	0.00022756671
0.013096193	0.85863876	0.043539368	0.00022756707
0.013293128	0.84143221	0.042315084	0.00022756671
0.013490063	0.74484539	0.037488814	0.00022756707
0.013686999	0.63235295	0.031061227	0.00022756707
0.013883934	0.6155718	0.030129226	0.00022756671
0.014080869	0.64593303	0.031396292	0.00022756707
0.014277805	0.57411766	0.02761717	0.00022756671
0.014474739	0.58865249	0.028394924	0.0002275663
0.014671675	0.60496616	0.028504401	0.00022756707
0.014868611	0.51136363	0.024215121	0.00022756671
0.015065545	0.48351648	0.02254202	0.0002275663
0.015262481	0.444206	0.020422122	0.00022756671
0.015459416	0.37582418	0.017509045	0.00022756595
0.01565635	0.37739873	0.017308578	0.00022756707
0.015853286	0.46072188	0.021130901	0.00022756554
0.016050221	0.39793813	0.017962622	0.00022756707
0.016247157	0.40890688	0.018273972	0.00022756707
0.016444093	0.368	0.016341055	0.00022756483
0.016641026	0.34738955	0.015480429	0.00022756707
0.016837962	0.34068137	0.015145378	0.00022756707
0.017034898	0.30350193	0.013318751	0.00022756554
0.017231833	0.34034416	0.014781769	0.00022756554
0.017428769	0.29791272	0.012892016	0.00022756483
0.017625703	0.29719627	0.012764687	0.00022756554
0.017822638	0.30726257	0.013178037	0.00022756554
0.018019574	0.29411766	0.012556051	0.00022756554
0.018216509	0.23357664	0.0099228062	0.00022756554
0.018413445	0.22361359	0.0093918098	0.00022756483
0.018610379	0.27738515	0.011605354	0.00022756554
0.018807314	0.24083769	0.010013724	0.00022756554
0.01900425	0.21490468	0.0088941762	0.00022756554
0.019201186	0.22902098	0.0095150061	0.00022756554
0.019398121	0.20100503	0.0081772609	0.00022756483
0.019595055	0.21525423	0.0088106366	0.00022756554
0.019791991	0.18842976	0.0076126279	0.00022756554
0.019988926	0.19338843	0.0078103002	0.00022756554
0.020185862	0.16666667	0.0066774888	0.00022756554
0.020382797	0.1656051	0.0065669944	0.00022756483
0.020579731	0.18446602	0.0073787412	0.00022756403
0.020776667	0.17084639	0.0067260275	0.00022756403
0.020973602	0.14710484	0.0057829274	0.00022756554
0.021170538	0.18125001	0.0071268468	0.00022756403
0.021367474	0.15686275	0.0060525178	0.0002275633
0.021564407	0.17182663	0.0067235278	0.00022756403
0.021761343	0.18684603	0.0071886922	0.00022756403
0.021958278	0.18401207	0.0071099051	0.00022756403
0.022155214	0.16005874	0.006098323	0.00022756403
0.02235215	0.16424419	0.0062256884	0.0002275633
0.022549083	0.16593245	0.0063239788	0.00022756403
0.022746019	0.1574468	0.0058980105	0.00022756403
0.022942955	0.1420373	0.0053417217	0.00022756403
0.02313989	0.13154173	0.0049176151	0.00022756403
0.023336826	0.15899582	0.0059048021	0.0002275633
0.02353376	0.1533052	0.0057128631	0.00022756403
0.023730695	0.10719132	0.00391583	0.00022756403
0.023927631	0.13931035	0.0051466306	0.0002275625
0.024124566	0.11260054	0.004096027	0.00022756403
0.024321502	0.14477211	0.0052753137	0.00022756179
0.024518436	0.14899328	0.0054269987	0.0002275625
0.024715371	0.10935441	0.0039444496	0.0002275625
0.024912307	0.12153237	0.004391273	0.0002275625
0.025109243	0.13810742	0.004908713	0.0002275625
0.025306178	0.13065977	0.0046787467	0.00022756179
0.025503112	0.10344828	0.003670719	0.0002275625
0.025700048	0.12071157	0.0042790789	0.0002275625
0.025896983	0.1259542	0.0044690464	0.0002275625
0.026093919	0.11453202	0.0039958726	0.00022756097
0.026290854	0.096774191	0.0033838253	0.00022756179
0.026487788	0.10731708	0.0037271332	0.0002275625
0.026684724	0.11491442	0.003993412	0.00022756097
0.026881659	0.10596833	0.0036743248	0.0002275625
0.027078595	0.10023867	0.0034351666	0.00022756097
0.027275531	0.11311673	0.0039018227	0.00022756179
0.027472464	0.1024447	0.0034756588	0.00022756097
0.0276694	0.092198581	0.003149756	0.00022756097
0.027866336	0.0800464	0.0027075568	0.00022756097
0.028063271	0.098837212	0.0033481582	0.00022756097
0.028260207	0.097902097	0.003320012	0.00022756026
0.028457141	0.094276093	0.0031390216	0.00022756097
0.028654076	0.07718502	0.0025815698	0.00022756097
0.028851012	0.091722593	0.0030478495	0.00022756097
0.029047947	0.07278835	0.00241657	0.00022756097
0.029244883	0.094488189	0.0031487194	0.00022756026
0.029441817	0.090413943	0.0029663821	0.00022756097
0.029638752	0.07692308	0.0025315138	0.00022755946
0.029835688	0.092772387	0.0030292538	0.00022756097
0.030032624	0.094623655	0.0030851988	0.00022755946
0.030229559	0.079004332	0.0025786525	0.00022755875
0.030426493	0.10212766	0.003312133	0.00022755946
0.030623429	0.089456871	0.0029021825	0.00022755946
0.030820364	0.078431375	0.0025024822	0.00022755946
0.0310173	0.089379601	0.0028815372	0.00022755946
0.031214235	0.077800833	0.0024885312	0.00022755946
0.031411171	0.084188908	0.0026808491	0.00022755875
0.031608105	0.063081697	0.0020090619	0.00022755571
0.031805038	0.087967642	0.0027787716	0.00022756017
0.032001976	0.096056625	0.0030384797	0.00022755875
0.03219891	0.080402009	0.0025318009	0.00022756017
0.032395847	0.080919079	0.0025422564	0.00022755875
0.032592781	0.087388285	0.0027380758	0.00022755875
0.032789715	0.08219178	0.0025565403	0.00022756017
0.032986652	0.0817734	0.0025517216	0.00022755571
0.033183586	0.080817915	0.0025063772	0.00022755713
0.033380523	0.085741811	0.0026462306	0.00022755875
0.033577457	0.071290947	0.002197603	0.00022755571
0.033774391	0.076263107	0.0023402644	0.00022755713
0.033971328	0.083969466	0.00257994	0.00022755571
0.034168262	0.08041627	0.0024579717	0.00022756017
0.0343652	0.07728558	0.0023585784	0.00022755571
0.034562133	0.077065922	0.0023341707	0.00022755571
0.034759067	0.069573283	0.0021046747	0.00022756017
0.034956004	0.071296297	0.0021563421	0.00022755571
0.035152938	0.0803653	0.0024155802	0.00022755713
0.035349876	0.062956207	0.0018882906	0.00022755571
0.035546809	0.078947365	0.0023649256	0.00022755571
0.035743743	0.067934781	0.0020296429	0.00022755713
0.035940681	0.063677132	0.0018935899	0.00022755571
0.036137614	0.079928949	0.002367673	0.00022755713
0.036334552	0.090586148	0.0026848754	0.00022755266
0.036531486	0.063492067	0.0018723948	0.00022755266
0.036728419	0.061728396	0.0018192217	0.00022755713
0.036925357	0.055652175	0.0016281217	0.00022755571
0.037122291	0.063423112	0.001857038	0.00022755713
0.037319228	0.071057193	0.0020779558	0.00022755571
0.037516162	0.06700594	0.0019392482	0.00022755266
0.037713096	0.057412166	0.0016679872	0.00022755713
0.037910033	0.071550258	0.0020766419	0.00022755266
0.038106967	0.073791347	0.0021370086	0.00022755409
0.038303904	0.061603375	0.0017766535	0.00022755266
0.038500838	0.072379366	0.0020756717	0.00022755266
0.038697772	0.055371899	0.0015798445	0.00022755409
0.038894709	0.058774833	0.0016791241	0.00022755266
0.039091643	0.063689001	0.001820196	0.00022755409
0.03928858	0.063934423	0.0018191087	0.00022755266
0.039485514	0.06336312	0.0017938769	0.00022755266
0.039682448	0.06580016	0.0018642745	0.00022755409
0.039879385	0.06746988	0.0019001482	0.00022755266
0.040076319	0.071199998	0.0020027843	0.00022755409
0.040273257	0.069020867	0.0019441829	0.00022754962
0.04047019	0.066825777	0.0018729962	0.00022754962
0.040667124	0.058776807	0.00164532	0.00022755409
0.040864062	0.071931198	0.0020001892	0.00022755266
0.041060995	0.062208399	0.0017236924	0.00022755409
0.041257933	0.081123248	0.002254602	0.00022754962
0.041454867	0.067704283	0.0018785519	0.00022755266
0.0416518	0.07081712	0.0019647041	0.00022755409
0.041848738	0.065648854	0.0018034276	0.00022754962
0.042045671	0.057034221	0.0015617439	0.00022754801
0.042242609	0.062357415	0.0017092091	0.00022754657
0.042439543	0.044798784	0.0012240505	0.00022754353
0.042636476	0.061607815	0.0016782216	0.00022754801
0.042833414	0.067018069	0.0018284407	0.00022754657
0.043030348	0.064973861	0.0017650943	0.00022754801
0.043227285	0.061299853	0.0016557201	0.00022754353
0.043424219	0.061164334	0.0016502312	0.00022754353
0.043621153	0.051470589	0.0013856228	0.00022754801
0.04381809	0.057184752	0.0015384582	0.00022754353
0.044015024	0.049012437	0.0013143936	0.00022754495
0.044211961	0.061594203	0.0016484136	0.00022754353
0.044408895	0.067625903	0.0018042236	0.00022754353
0.044605829	0.053879309	0.0014347143	0.00022754495
0.044802766	0.05954089	0.001584952	0.00022754353
0.0449997	0.057102069	0.0015158288	0.00022754495
0.045196638	0.053710248	0.0014186657	0.00022754353
0.045393571	0.058156028	0.0015398372	0.00022754353
0.045590505	0.046951648	0.0012337506	0.00022754495
0.045787442	0.042776998	0.0011238635	0.00022754048
0.045984376	0.071527779	0.0018760444	0.00022754191
0.046181314	0.060374741	0.0015818439	0.00022754353
0.046378247	0.047651935	0.0012430567	0.00022754048
0.046575181	0.050414365	0.0013147056	0.00022754191
0.046772119	0.066483893	0.0017310412	0.00022754353
0.046969052	0.068073519	0.0017670841	0.00022754495
0.04716599	0.065439671	0.0016994553	0.00022754048
0.047362924	0.057277627	0.0014783723	0.00022754048
0.047559857	0.056970511	0.0014660842	0.00022754495
0.047756795	0.053727333	0.0013834266	0.00022754048
0.047953729	0.075117372	0.0019360657	0.00022754495
0.048150666	0.042468481	0.0010849535	0.00022754048
0.0483476	0.04910418	0.0012551281	0.00022754048
0.048544534	0.049115915	0.0012477816	0.00022754191
0.048741471	0.04350692	0.0011081271	0.00022753744
0.048938405	0.044299673	0.0011214855	0.00022754191
0.049135342	0.04587156	0.0011647801	0.00022754048
0.049332276	0.053791314	0.0013593611	0.00022753744
0.04952921	0.061448902	0.0015526374	0.00022753887
0.049726147	0.052224372	0.0013166581	0.00022753744
0.049923081	0.043698542	0.0010899553	0.00022754191
0.050120018	0.053069055	0.0013320688	0.00022753744
0.050316952	0.053742804	0.0013501446	0.00022753744
0.050513886	0.06666667	0.0016695958	0.00022753887
0.050710823	0.060875081	0.0015215619	0.00022753744
0.050907757	0.054003723	0.0013361676	0.00022753887
0.051104695	0.042473454	0.0010519157	0.00022753744
0.051301628	0.053682897	0.0013321869	0.00022753744
0.051498562	0.038077403	0.00094174	0.00022753887
0.0516955	0.042053185	0.00103611	0.00022753744
0.051892433	0.044675641	0.001095859	0.00022753887
0.052089371	0.04506173	0.001109462	0.0002275344
0.052286305	0.054037645	0.0013220567	0.00022753744
0.052483238	0.04924012	0.0012048478	0.00022753583
0.052680176	0.051671732	0.0012643841	0.0002275344
0.052877109	0.056534953	0.001384057	0.00022753887
0.053074047	0.049427364	0.0012039085	0.0002275344
0.053270981	0.048955224	0.0011868756	0.00022753744
0.053467914	0.051909309	0.0012583362	0.00022753887
0.053664852	0.05982906	0.0014688394	0.0002275344
0.053861786	0.042724457	0.001053031	0.00022753583
0.054058723	0.052926525	0.0013099913	0.0002275344
0.054255657	0.055658627	0.0013732322	0.0002275344
0.054452591	0.04940588	0.0012254788	0.00022753583
0.054649528	0.051777918	0.0012826073	0.0002275344
0.054846462	0.048902821	0.0012145583	0.00022753583
0.055043399	0.056710776	0.0014137797	0.00022753136
0.055240333	0.066329755	0.0016551248	0.0002275344
0.055437267	0.068683051	0.0017140817	0.00022753583
0.055634204	0.051314142	0.0012746663	0.00022753136
0.055831138	0.055731475	0.0013931483	0.00022753279
0.056028076	0.052234109	0.0012999827	0.00022753136
0.056225009	0.057522126	0.0014353561	0.00022753136
0.056421943	0.04530951	0.0011336696	0.00022753279
0.05661888	0.048397236	0.0012033475	0.00022753136
0.056815814	0.054054055	0.0013449216	0.00022753279
0.057012752	0.048734177	0.0012157299	0.00022753136
0.057209685	0.059974749	0.0014964179	0.00022752832
0.057406619	0.059343435	0.0014803478	0.00022753279
0.057603557	0.050536957	0.0012596247	0.00022753136
0.05780049	0.051265825	0.0012791801	0.00022753279
0.057997428	0.054648243	0.0013594344	0.00022752832
0.058194362	0.051767677	0.0012906311	0.00022752832
0.058391295	0.04611497	0.0011479354	0.00022752974
0.058588233	0.039473683	0.0009787532	0.00022752832
0.058785167	0.062025316	0.0015503101	0.00022752974
0.058982104	0.057196733	0.001423017	0.00022752832
0.059179038	0.055904523	0.0013901009	0.00022752832
0.059375972	0.052863438	0.0013152411	0.00022752974
0.059572909	0.050125312	0.0012436692	0.00022752528
0.059769843	0.039697543	0.00098607759	0.00022752974
0.05996678	0.049566295	0.0012238908	0.00022752528
0.060163714	0.047889099	0.0011912048	0.00022752528
0.060360648	0.048628427	0.0012039455	0.00022752974
0.060557585	0.055729493	0.0013841088	0.00022752528
0.060754519	0.041692596	0.0010295329	0.0002275267
0.060951456	0.037453182	0.00092557829	0.00022752528
0.06114839	0.054138146	0.0013402613	0.00022752528
0.061345324	0.050435867	0.0012472683	0.0002275267
0.061542261	0.040993787	0.0010113617	0.00022752528
0.061739195	0.037935324	0.00093544432	0.0002275267
0.061936133	0.045877248	0.0011323835	0.00022752528
0.062133066	0.050123762	0.0012370489	0.00022752528
0.06233	0.041846152	0.0010271051	0.00022752528
0.062526934	0.045735475	0.001127347	0.0002275251
0.062723875	0.051488835	0.0012718787	0.00022751919
0.062920809	0.047472257	0.0011694089	0.00022752528
0.063117743	0.049597025	0.0012250294	0.00022751919
0.063314676	0.052631579	0.0012930598	0.00022751919
0.06351161	0.053145997	0.0013037553	0.00022752814
0.063708551	0.052115265	0.0012807021	0.00022751919
0.063905485	0.043881334	0.0010820121	0.00022751919
0.064102419	0.053048782	0.0013001788	0.00022751919
0.064299352	0.056338027	0.0013846528	0.00022752528
0.064496286	0.043929227	0.0010761649	0.00022752205
0.064693227	0.063791007	0.0015630083	0.00022751919
0.064890161	0.045454547	0.0011092579	0.00022751919
0.065087095	0.041539401	0.0010174004	0.00022752528
0.065284029	0.053145997	0.0013037553	0.00022752528
0.065480962	0.046004843	0.0011221763	0.00022752205
0.065677904	0.045728039	0.0011128453	0.00022752528
0.065874837	0.038112521	0.00092879549	0.00022751919
0.066071771	0.051173992	0.0012470313	0.00022751919
0.066268705	0.042321645	0.0010317657	0.00022751919
0.066465639	0.042143289	0.0010239704	0.00022752205
0.06666258	0.041317366	0.0010014304	0.00022751919
0.066859514	0.041792855	0.0010198612	0.00022751919
0.067056447	0.044589773	0.0010777473	0.00022751919
0.067253381	0.049013749	0.0011891847	0.00022751919
0.067450315	0.052002393	0.0012625696	0.00022751596
0.067647256	0.045508981	0.0011058286	0.00022751919
0.06784419	0.039568346	0.00096018513	0.00022751919
0.068041123	0.031952664	0.0007686363	0.00022751311
0.068238057	0.043272082	0.0010442152	0.00022751311
0.068434991	0.060606062	0.0014684957	0.00022752205
0.068631932	0.044326242	0.001069558	0.00022751311
0.068828866	0.050837319	0.0012342226	0.00022751311
0.0690258	0.055523086	0.0013336581	0.00022751311
0.069222733	0.057260919	0.0013816297	0.00022751311
0.069419667	0.044917259	0.0010835647	0.00022751596
0.069616608	0.043376319	0.001042205	0.00022751311
0.069813542	0.038755137	0.00093051384	0.00022751311
0.070010476	0.03533569	0.00084963377	0.00022751311
0.07020741	0.040756054	0.00098234892	0.00022751311
0.070404343	0.048526864	0.0011580698	0.00022752205
0.070601285	0.039112668	0.00093672378	0.00022751311
0.070798218	0.045903545	0.0010987337	0.00022751311
0.070995152	0.039296187	0.00094375352	0.00022751311
0.071192086	0.044950381	0.0010778253	0.00022751311
0.071389019	0.040276181	0.00095766393	0.00022751596
0.071585961	0.041763343	0.00099794171	0.00022750701
0.071782894	0.0433526	0.001034132	0.00022751311
0.071979828	0.048171792	0.0011526487	0.00022751311
0.072176762	0.05129683	0.0012236811	0.00022751311
0.072373696	0.04068768	0.00096662878	0.00022751596
0.072570637	0.058550723	0.001400365	0.00022751311
0.072767571	0.045480385	0.0010758633	0.00022750701
0.072964504	0.040509257	0.00096599059	0.00022750701
0.073161438	0.03975014	0.00093915517	0.00022751311
0.073358372	0.046338674	0.0010994091	0.00022750988
0.073555313	0.047811061	0.0011392196	0.00022750701
0.073752247	0.037874505	0.00089258963	0.00022751311
0.073949181	0.039954338	0.00094600918	0.00022750701
0.074146114	0.04640634	0.0010962102	0.00022751311
0.074343048	0.055904165	0.0013270919	0.00022750988
0.074539989	0.040318001	0.0009532902	0.00022750701
0.074736923	0.050307434	0.0011799961	0.00022750701
0.074933857	0.044963006	0.0010653054	0.00022750701
0.07513079	0.034346845	0.00080787123	0.00022750701
0.075327724	0.048986487	0.0011543228	0.0002275038
0.075524665	0.044507042	0.0010487979	0.00022750701
0.075721599	0.057349667	0.0013457562	0.00022750093
0.075918533	0.048986487	0.0011544775	0.00022750701
0.076115467	0.055400111	0.0013026494	0.00022750701
0.0763124	0.056393076	0.0013240561	0.00022750988
0.076509342	0.050055616	0.001172321	0.00022750701
0.076706275	0.05108273	0.0011951792	0.00022750701
0.076903209	0.057174888	0.0013454173	0.00022750701
0.077100143	0.053994492	0.0012601953	0.00022750093
0.077297077	0.054878049	0.0012848068	0.0002275038
0.077494018	0.05506118	0.0012909778	0.00022750093
0.077690952	0.04617922	0.0010748869	0.00022750093
0.077887885	0.044568244	0.0010444828	0.00022750093
0.078084819	0.051742919	0.0012004542	0.00022750093
0.078281753	0.048981838	0.0011416259	0.0002275038
0.078478694	0.043478262	0.001012473	0.00022750093
0.078675628	0.050791916	0.0011800943	0.00022750093
0.078872561	0.053472988	0.0012477423	0.00022750093
0.079069495	0.052316077	0.0012137723	0.00022750093
0.079266429	0.040370975	0.0009354229	0.0002275038
0.07946337	0.035441659	0.00082043366	0.00022750093
0.079660304	0.036776636	0.00084750907	0.00022750093
0.079857238	0.053522665	0.0012434481	0.00022750093
0.080054171	0.037858304	0.00087398861	0.00022750093
0.080251105	0.034332424	0.00079407636	0.0002275038
0.080448046	0.039353099	0.00090594339	0.00022749485
0.08064498	0.039614562	0.00090942055	0.00022750093
0.080841914	0.041734416	0.00096456072	0.00022750093
0.081038848	0.036480688	0.00083748222	0.00022749485
0.081235781	0.04707792	0.0010885319	0.00022749772
0.081432723	0.054429028	0.0012503816	0.00022749485
0.081629656	0.043200001	0.00099052314	0.00022749485
0.08182659	0.0316015	0.00072470092	0.00022749485
0.082023524	0.033528473	0.00076555577	0.00022749485
0.082220457	0.037947621	0.00087045482	0.00022749772
0.082417399	0.034666665	0.0007936664	0.00022749485
0.082614332	0.034592867	0.00079113292	0.00022749485
0.082811266	0.036643654	0.00083745754	0.00022749485
0.0830082	0.039999999	0.00091088534	0.00022749485
0.083205134	0.035412263	0.00080678042	0.00022749163
0.083402075	0.03909139	0.00089162699	0.00022749485
0.083599009	0.040447045	0.00092571229	0.00022749485
0.083795942	0.044596013	0.0010147347	0.00022748877
0.083992876	0.037192248	0.00084475987	0.00022749485
0.08418981	0.038743455	0.00087958429	0.00022749772
0.084386751	0.031920459	0.0007235824	0.00022748877
0.084583685	0.037637219	0.00085407577	0.00022749485
0.084780619	0.029151484	0.00065889343	0.00022749485
0.084977552	0.037056368	0.00083979516	0.00022748877
0.085174486	0.03671148	0.0008279293	0.00022749163
0.085371427	0.035361413	0.00079958234	0.00022748877
0.085568361	0.048893463	0.0011021582	0.00022748877
0.085765295	0.038065843	0.00085676502	0.00022748877
0.085962228	0.044316996	0.0010052249	0.00022748877
0.086159162	0.03861998	0.00086963305	0.00022748555
0.086356103	0.038226299	0.00085605821	0.00022748877
0.086553037	0.037987679	0.00085460226	0.00022748877
0.086749971	0.033519555	0.00074879365	0.00022748877
0.086946905	0.039609052	0.00089166022	0.00022748268
0.087143838	0.034972124	0.00078080466	0.00022749163
0.08734078	0.035186131	0.00078764703	0.00022748877
0.087537713	0.026849037	0.00059742219	0.00022748268
0.087734647	0.037936267	0.0008470969	0.00022748877
0.087931581	0.038109757	0.00085291546	0.00022748877
0.088128515	0.044701155	0.00099539279	0.00022748555
0.088325456	0.040785499	0.00090906018	0.00022748268
0.08852239	0.031898733	0.00071096094	0.00022748268
0.088719323	0.041437842	0.00091997831	0.00022748268
0.088916257	0.038577154	0.0008568911	0.00022748268
0.089113191	0.044455543	0.00098745141	0.00022748555
0.089310132	0.045454547	0.0010100483	0.00022748268
0.089507066	0.037848607	0.00083867763	0.00022748268
0.089703999	0.045634922	0.0010091483	0.00022748268
0.089900933	0.043000001	0.00095522578	0.00022748268
0.090097867	0.041318249	0.00091034372	0.00022747947
0.090294808	0.036390826	0.00080666185	0.00022748268
0.090491742	0.041440554	0.00091412652	0.00022748268
0.090688676	0.044982698	0.00099423761	0.00022748268
0.090885609	0.040967423	0.00090395514	0.0002274766
0.091082543	0.038404725	0.00084619969	0.00022748268
0.091279477	0.042302016	0.00093180302	0.00022748555
0.091476418	0.039842598	0.000877171	0.0002274766
0.091673352	0.040039062	0.00087862264	0.00022748268
0.091870286	0.033873342	0.00074460945	0.0002274766
0.092067219	0.042605288	0.00093650172	0.0002274766
0.092264153	0.035540409	0.00077780499	0.00022747947
0.092461094	0.03902439	0.00085603166	0.0002274766
0.092658028	0.045965768	0.0010102389	0.0002274766
0.092854962	0.040638607	0.00088784378	0.0002274766
0.093051895	0.044465926	0.00097154616	0.0002274766
0.093248829	0.037882466	0.00082857988	0.00022747337
0.09344577	0.050749153	0.0011094245	0.0002274766
0.093642704	0.042274054	0.00092609576	0.00022747052
0.093839638	0.039537128	0.00086254021	0.0002274766
0.094036572	0.039923038	0.000869348	0.0002274766
0.094233505	0.045761079	0.00099850132	0.00022747947
0.094430447	0.040708814	0.00088485115	0.00022747052
0.09462738	0.034782607	0.00075846317	0.00022747052
0.094824314	0.037302725	0.00080976449	0.00022747052
0.095021248	0.047869794	0.0010414028	0.00022747052
0.095218182	0.039980963	0.00086600258	0.00022747337
0.095415123	0.045389391	0.00098635885	0.00022747052
0.095612057	0.037160553	0.00080527313	0.00022747052
0.09580899	0.042796005	0.00092754519	0.00022747052
0.096005924	0.044497609	0.00096764293	0.00022747052
0.096202858	0.039355144	0.00085161359	0.00022747337
0.096399799	0.050118204	0.0010840099	0.00022747052
0.096596733	0.044684853	0.0009639113	0.00022746444
0.096793666	0.041115314	0.00088815641	0.00022747052
0.0969906	0.042060491	0.00090884132	0.00022746444
0.097187534	0.037229028	0.00080193504	0.00022747337
0.097384475	0.044874825	0.00096908672	0.00022746444
0.097581409	0.040883459	0.00087959156	0.00022747052
0.097778343	0.044671942	0.00095788832	0.00022746444
0.097975276	0.042352941	0.00091283343	0.00022746444
0.09817221	0.046641789	0.0010011767	0.00022746729
0.098369151	0.034889203	0.00075177138	0.00022746444
0.098566085	0.030569708	0.00065290352	0.00022746444
0.098763019	0.037002344	0.00079539651	0.00022746444
0.098959953	0.039777983	0.00085023278	0.00022746444
0.099156886	0.045727484	0.00097730593	0.00022746121
0.099353828	0.037815128	0.00081194314	0.00022746444
0.099550761	0.042750929	0.00091521826	0.00022745834
0.099747695	0.035961274	0.00076634478	0.00022745834
0.099944629	0.039777983	0.00084999984	0.00022745834
0.10014156	0.040459771	0.00086223992	0.00022746121
0.1003385	0.040609136	0.00086690643	0.00022745834
0.10053544	0.038073394	0.00081022468	0.00022746444
0.10073237	0.042286247	0.00090584694	0.00022745834
0.1009293	0.037121907	0.0007893499	0.00022746444
0.10112624	0.040454544	0.00085739139	0.00022746121
0.10132318	0.036305148	0.00077314471	0.00022746444
0.10152011	0.043616537	0.00092434144	0.00022745834
0.10171705	0.037951533	0.00080609997	0.00022745834
0.10191398	0.045123063	0.00095769361	0.00022745834
0.10211091	0.036546368	0.00077542302	0.00022746121
0.10230786	0.04001819	0.0008478277	0.00022745834
0.10250479	0.029837251	0.000629135	0.00022745226
0.10270172	0.023423424	0.00049188471	0.00022745226
0.10289866	0.038724374	0.00082105084	0.00022745226
0.10309559	0.041064981	0.0008661407	0.00022745512
0.10329253	0.037171353	0.00078521384	0.00022745226
0.10348947	0.037219729	0.00078300905	0.00022745834
0.1036864	0.040540539	0.00085539685	0.00022745226
0.10388333	0.038133692	0.00080177095	0.00022745226
0.10408027	0.041385517	0.00087265705	0.00022746121
0.10427721	0.043946188	0.00092518254	0.00022745226
0.10447414	0.040376849	0.00085000804	0.00022745226
0.10467108	0.046791445	0.00098273193	0.00022745226
0.10486801	0.04604381	0.000968154	0.00022745226
0.10506494	0.048337027	0.0010125871	0.00022745512
0.10526188	0.045879733	0.00096335006	0.00022745226
0.10545882	0.051477171	0.0010836172	0.00022744617
0.10565575	0.043863535	0.00091834442	0.00022745226
0.10585269	0.039520428	0.00082754518	0.00022745226
0.10604962	0.049911659	0.0010437251	0.00022745512
0.10624656	0.042035397	0.0008792571	0.00022744617
0.10644349	0.046337157	0.00096792018	0.00022744617
0.10664043	0.042272128	0.00088183244	0.00022745226
0.10683736	0.047766477	0.00099959341	0.00022744617
0.1070343	0.050616197	0.0010566222	0.00022744904
0.10723124	0.049409706	0.0010282616	0.00022744617
0.10742817	0.049779736	0.0010395068	0.00022744617
0.1076251	0.057266813	0.0011874994	0.00022744617
0.10782204	0.052747253	0.001101199	0.00022744617
0.10801897	0.056405772	0.0011741592	0.00022744904
0.10821591	0.049452953	0.0010281451	0.00022744617
0.10841285	0.057977334	0.0012050947	0.00022744617
0.10860978	0.055819992	0.0011562642	0.00022744009
0.10880671	0.054872695	0.0011445169	0.00022744009
0.10900365	0.069486402	0.0014385488	0.00022744904
0.10920059	0.068741895	0.0014244025	0.00022744009
0.10939752	0.059436008	0.0012333253	0.00022744009
0.10959446	0.06263499	0.0012969538	0.00022744009
0.10979139	0.058644656	0.0012171479	0.00022744009
0.10998832	0.059579939	0.0012285592	0.00022744296
0.11018527	0.062095731	0.0012846381	0.00022744009
0.1103822	0.059457131	0.0012294103	0.00022744009
0.11057913	0.056223176	0.0011597394	0.00022743401
0.11077607	0.058519792	0.0012091012	0.00022744009
0.110973	0.057069845	0.0011728189	0.00022743687
0.11116994	0.064985037	0.0013388461	0.00022743401
0.11136688	0.061670236	0.0012711458	0.00022743401
0.11156381	0.063802637	0.0013112251	0.00022743401
0.11176074	0.056837607	0.0011703974	0.00022743401
0.11195768	0.061068702	0.0012530776	0.00022744296
0.11215462	0.066695169	0.0013742888	0.00022743401
0.11235155	0.064516127	0.0013243792	0.00022743401
0.11254849	0.059096664	0.0012096486	0.00022743401
0.11274542	0.069856055	0.0014329256	0.00022743401
0.11294235	0.060246076	0.0012361404	0.00022743687
0.11313929	0.063055441	0.0012925371	0.00022743401
0.11333623	0.062526226	0.001276297	0.00022743401
0.11353316	0.051585622	0.0010562594	0.00022742792
0.1137301	0.065126054	0.0013301952	0.00022743401
0.11392703	0.061506275	0.0012535068	0.00022743079
0.11412397	0.069718607	0.0014243649	0.00022742792
0.1143209	0.076502733	0.0015638791	0.00022742792
0.11451784	0.052741732	0.0010745184	0.00022742792
0.11471477	0.058329836	0.0011903394	0.00022742792
0.11491171	0.072908036	0.0014793674	0.00022743079
0.11510865	0.06385643	0.0013000492	0.00022742792
0.11530558	0.065778516	0.0013373544	0.00022742792
0.11550251	0.068590544	0.0013980604	0.00022742792
0.11569945	0.076668046	0.0015562169	0.00022742792
0.11589638	0.068266444	0.0013838271	0.00022743079
0.11609332	0.079785034	0.001617362	0.00022742792
0.11629026	0.079884104	0.0016205949	0.00022742792
0.11648719	0.084332369	0.001709973	0.00022742184
0.11668412	0.082163498	0.0016647767	0.00022742184
0.11688106	0.079536043	0.0016141725	0.00022742471
0.117078	0.098684214	0.0019966622	0.00022742184
0.11727493	0.087187886	0.0017596128	0.00022742184
0.11747187	0.097011872	0.0019583669	0.00022742184
0.1176688	0.10250103	0.0020708689	0.00022742184
0.11786573	0.10973597	0.0022244621	0.00022742471
0.11806267	0.12086566	0.0024378006	0.00022742184
0.11825961	0.13560016	0.0027400916	0.00022742184
0.11845654	0.14395782	0.0028941706	0.00022742184
0.11865348	0.16605617	0.0033453016	0.00022742184
0.11885041	0.21794346	0.0044063646	0.00022741863
0.11904735	0.33481783	0.0067317034	0.00022741576
0.11924428	0.55614322	0.011211607	0.00022741576
0.11944122	0.88066345	0.017705984	0.00022741576
0.11963815	1.5085297	0.030394187	0.00022741576
0.11983509	2.3708317	0.04751062	0.00022741863
0.12003203	3.6457996	0.073254861	0.00022741576
0.12022896	5.087769	0.10254183	0.00022741576
0.12042589	6.8951416	0.13871785	0.00022741576
0.12062283	8.4008017	0.16816185	0.00022741576
0.12081976	9.8836746	0.19792792	0.00022741863
0.1210167	11.0436	0.22085054	0.00022741576
0.12121364	11.265751	0.22638595	0.00022740968
0.12141057	11.014771	0.22006127	0.00022740968
0.1216075	10.479743	0.20987743	0.00022741576
0.12180444	9.8781843	0.19708225	0.00022741254
0.12200138	8.9194899	0.1780609	0.00022740968
0.12219831	7.8198881	0.15626244	0.00022741576
0.12239525	7.1215839	0.14171161	0.00022741576
0.12259218	6.2253294	0.12441587	0.00022740968
0.12278911	5.4747314	0.10919166	0.00022741254
0.12298606	4.6771245	0.093186617	0.00022740968
0.12318299	3.874505	0.07706964	0.00022740968
0.12337992	3.0847392	0.061080165	0.00022740968
0.12357686	2.5347085	0.050467059	0.00022740968
0.12377379	1.9549586	0.038846172	0.00022740646
0.12397073	1.4204501	0.028213654	0.00022740968
0.12416767	0.93008643	0.018426292	0.00022740359
0.1243646	0.70258623	0.0139026	0.00022740359
0.12456153	0.52405363	0.010401555	0.00022740359
0.12475847	0.42398119	0.008388157	0.00022740646
0.12495541	0.39630067	0.0078574726	0.00022739463
0.12515233	0.36512899	0.0072149229	0.00022740323
0.12534928	0.33320358	0.0065697632	0.00022739751
0.12554622	0.29917872	0.0059120436	0.00022739751
0.12574315	0.29731831	0.005857158	0.00022739751
0.12594008	0.27002737	0.0053338408	0.00022739751
0.12613702	0.25417799	0.0050065196	0.00022740968
0.12633395	0.25614035	0.0050531505	0.00022740968
0.12653089	0.2199845	0.0043252804	0.00022739751
0.12672782	0.20131375	0.0039532315	0.00022739751
0.12692475	0.2017134	0.0039762384	0.00022739751
0.12712169	0.19678408	0.0038461704	0.00022740323
0.12731864	0.1862364	0.003668332	0.00022739751
0.12751557	0.18776453	0.003678953	0.00022739751
0.1277125	0.17192307	0.0033678028	0.00022739751
0.12790944	0.17767479	0.0034874706	0.00022739751
0.12810637	0.17108804	0.0033506241	0.00022739751
0.1283033	0.16596398	0.0032450466	0.00022739751
0.12850024	0.16289766	0.0031850727	0.00022739751
0.12869717	0.16749522	0.0032713606	0.00022738535
0.12889411	0.15827891	0.003098137	0.00022739751
0.12909104	0.15481171	0.0030153929	0.00022740323
0.12928799	0.13075154	0.0025561857	0.00022739751
0.12948492	0.13868889	0.0026956722	0.00022739751
0.12968186	0.13870844	0.002707361	0.00022738535
0.12987879	0.13632901	0.0026563401	0.00022738535
0.13007572	0.13242528	0.0025719062	0.00022738535
0.13027266	0.13774733	0.0026830751	0.00022738535
0.13046959	0.12887377	0.0025014845	0.00022738535
0.13066652	0.10163064	0.0019750693	0.00022738535
0.13086346	0.11606805	0.0022524789	0.00022739751
0.13106039	0.10502626	0.0020302525	0.00022740323
0.13125734	0.11939164	0.0023238556	0.00022738535
0.13145427	0.11232156	0.0021729141	0.00022738535
0.13165121	0.10885122	0.002108728	0.00022738535
0.13184814	0.11502435	0.0022223985	0.00022738535
0.13204508	0.1084021	0.0020954874	0.00022738535
0.13224201	0.1102719	0.002138946	0.00022738535
0.13243894	0.10127056	0.0019537816	0.00022738535
0.13263588	0.10730253	0.0020670446	0.00022738535
0.13283281	0.10172027	0.0019631034	0.00022738535
0.13302974	0.1017964	0.0019654948	0.00022739106
0.13322669	0.095522389	0.0018412067	0.00022738535
0.13342363	0.091549292	0.0017587242	0.00022738535
0.13362056	0.09134794	0.0017565243	0.00022738535
0.13381749	0.09877003	0.0019029158	0.00022737318
0.13401443	0.10751488	0.0020699603	0.00022737318
0.13421136	0.094248608	0.0018118613	0.00022738535
0.1344083	0.088061899	0.001686612	0.00022737318
0.13460523	0.090539545	0.0017363657	0.00022737318
0.13480216	0.090334572	0.0017380399	0.00022737318
0.1349991	0.093333334	0.001792285	0.0002273789
0.13519605	0.089383438	0.0017034956	0.00022737318
0.13539298	0.093669012	0.0017981916	0.00022737318
0.13558991	0.086080588	0.0016437778	0.00022737318
0.13578685	0.099228226	0.0018986169	0.00022737318
0.13598378	0.080922738	0.0015446345	0.00022737318
0.13618071	0.082474224	0.0015789418	0.00022737318
0.13637765	0.070670083	0.0013484254	0.00022737318
0.13657458	0.0891487	0.0017003304	0.00022737318
0.13677152	0.077259474	0.0014710176	0.00022737318
0.13696845	0.086482555	0.0016446025	0.00022737318
0.13716538	0.08360716	0.0015939875	0.0002273789
0.13736233	0.072081961	0.0013747812	0.00022737318
0.13755926	0.080202311	0.0015209137	0.00022737318
0.1377562	0.073925711	0.0014068249	0.00022737318
0.13795313	0.087082729	0.0016547976	0.00022736102
0.13815007	0.084868185	0.0016090515	0.00022736102
0.138347	0.081943437	0.0015562397	0.00022737318
0.13854393	0.077697843	0.0014700611	0.00022737318
0.13874087	0.077818185	0.0014802127	0.00022736102
0.1389378	0.077978343	0.0014776796	0.00022736102
0.13913473	0.061626658	0.0011628087	0.00022736673
0.13933168	0.079439253	0.0015024428	0.00022737318
0.13952862	0.078635551	0.0014865872	0.00022737318
0.13972555	0.082848839	0.0015754707	0.00022736102
0.13992248	0.072701357	0.0013688367	0.00022736102
0.14011942	0.069200434	0.0013065417	0.00022736102
0.14031635	0.070457794	0.0013285388	0.00022737318
0.14051329	0.07955762	0.0014990116	0.00022736102
0.14071022	0.085037678	0.0016067999	0.00022736102
0.14090715	0.077958897	0.0014636604	0.00022736102
0.14110409	0.07711532	0.0014534014	0.00022736673
0.14130104	0.061472479	0.0011587233	0.00022736102
0.14149797	0.071934797	0.0013502066	0.00022736102
0.1416949	0.058886129	0.0011055333	0.00022734885
0.14189184	0.065371022	0.0012251814	0.00022736102
0.14208877	0.072142854	0.0013597668	0.00022736102
0.1422857	0.070542358	0.0013246103	0.00022736102
0.14248264	0.062829062	0.0011735002	0.00022736102
0.14267957	0.057092197	0.0010717462	0.00022736102
0.14287651	0.066783831	0.0012484035	0.00022736102
0.14307344	0.069002122	0.0012943881	0.00022735457
0.14327039	0.065706253	0.0012282912	0.00022736102
0.14346732	0.059817031	0.0011185929	0.00022734885
0.14366426	0.061074059	0.0011406753	0.00022734885
0.14386119	0.063180067	0.0011801902	0.00022736102
0.14405812	0.066199653	0.0012355334	0.00022734885
0.14425506	0.070456922	0.0013122138	0.00022734885
0.14445199	0.071553841	0.0013363588	0.00022734885
0.14464892	0.067392066	0.0012592103	0.00022734885
0.14484586	0.053875566	0.0010009443	0.00022734885
0.14504279	0.055788007	0.0010382738	0.00022735457
0.14523974	0.057014514	0.0010564444	0.00022734885
0.14543667	0.069449313	0.0012945848	0.00022733668
0.14563361	0.058660187	0.0010864461	0.00022734885
0.14583054	0.060479667	0.0011207308	0.00022734885
0.14602748	0.06122449	0.0011313806	0.00022734885
0.14622441	0.060920734	0.001129805	0.00022733668
0.14642134	0.061161023	0.0011334877	0.00022734885
0.14661828	0.058195591	0.0010764889	0.00022733668
0.14681521	0.055459272	0.0010290686	0.00022733668
0.14701214	0.066919625	0.0012393571	0.0002273424
0.14720909	0.05821564	0.0010769313	0.00022733668
0.14740603	0.049293347	0.00091165403	0.00022733668
0.14760296	0.057901908	0.001065188	0.00022733668
0.14779989	0.059937995	0.0011088821	0.00022733668
0.14799683	0.058560111	0.0010834798	0.00022733668
0.14819376	0.058379121	0.0010783476	0.00022733668
0.1483907	0.058883943	0.0010858588	0.00022733668
0.14858763	0.056841388	0.001045213	0.00022733668
0.14878456	0.062521473	0.0011552832	0.00022733668
0.1489815	0.056949154	0.0010452727	0.0002273424
0.14917845	0.057240203	0.0010531092	0.00022733668
0.14937538	0.057639837	0.0010611035	0.00022733668
0.14957231	0.05655266	0.0010373706	0.00022733668
0.14976925	0.057191782	0.0010549697	0.00022733668
0.14996618	0.050893158	0.0009311008	0.00022733668
0.15016311	0.057627119	0.0010576134	0.00022732452
0.15036005	0.054403264	0.00099985301	0.00022732452
0.15055698	0.051212937	0.00093673606	0.00022733668
0.15075392	0.048266485	0.00088670012	0.00022733668
0.15095085	0.063066088	0.0011468171	0.00022733024
0.1511478	0.058268778	0.0010620079	0.00022732452
0.15134473	0.060196146	0.0011000942	0.00022733668
0.15154167	0.046964105	0.00085697346	0.00022732452
0.1517386	0.060851928	0.0011155887	0.00022732452
0.15193553	0.055257872	0.001007881	0.00022732452
0.15213247	0.052100841	0.00095169037	0.00022733668
0.1523294	0.055648677	0.0010156179	0.00022732452
0.15252633	0.053315561	0.00096986193	0.00022732452
0.15272327	0.045165606	0.0008225583	0.00022732452
0.1529202	0.051718384	0.00094138726	0.00022733024
0.15311715	0.05331992	0.0009730017	0.00022732452
0.15331408	0.052841477	0.00096001005	0.00022732452
0.15351102	0.054853722	0.00099680584	0.00022732452
0.15370795	0.049584027	0.00090130529	0.00022731235
0.15390489	0.051580697	0.00093786593	0.00022732452
0.15410182	0.054250743	0.00098341156	0.00022732452
0.15429875	0.05215947	0.00094718079	0.00022732452
0.15449569	0.044156708	0.00080145418	0.00022731235
0.15469262	0.048312377	0.00087568304	0.00022731235
0.15488955	0.049077734	0.00088773586	0.00022731809
0.1550865	0.04808959	0.00086959114	0.00022732452
0.15528344	0.043737575	0.00079298503	0.00022731235
0.15548037	0.049685325	0.00090107415	0.00022731235
0.1556773	0.043934427	0.00079232734	0.00022731235
0.15587424	0.039538715	0.00071457122	0.00022731235
0.15607117	0.04340731	0.00078095816	0.00022731235
0.1562681	0.045499504	0.00082282978	0.00022731235
0.15646504	0.044678055	0.00080658734	0.00022732452
0.15666197	0.051667757	0.00093110889	0.00022731235
0.15685891	0.050997056	0.00091901398	0.00022731809
0.15705585	0.045024469	0.00080997596	0.00022731235
0.15725279	0.050425671	0.00090918521	0.00022731235
0.15744972	0.040637191	0.00072941819	0.00022731235
0.15764666	0.044921875	0.00080729421	0.00022731235
0.15784359	0.050163936	0.00090491679	0.00022731235
0.15804052	0.050583657	0.00090759777	0.00022731235
0.15823746	0.045943305	0.0008260929	0.00022731235
0.15843439	0.050869286	0.0009094227	0.00022731235
0.15863132	0.048638131	0.00087261724	0.00022730019
0.15882826	0.054723129	0.00098437199	0.00022731809
0.15902521	0.052359406	0.00093794399	0.00022730019
0.15922214	0.044703595	0.0008011621	0.00022730019
0.15941907	0.043938421	0.00078340911	0.00022731235
0.15961601	0.039494984	0.00070694537	0.00022730019
0.15981294	0.050547328	0.00090367801	0.00022730019
0.16000988	0.053766903	0.00096142082	0.00022730019
0.16020681	0.051207729	0.00091568305	0.00022730019
0.16040374	0.050977878	0.00090963283	0.00022730019
0.16060068	0.0448098	0.00080106739	0.00022730019
0.16079761	0.048803829	0.00086806162	0.00022730592
0.16099456	0.042743221	0.00075993512	0.00022730019
0.16119149	0.044093981	0.00078757363	0.00022730019
0.16138843	0.048608892	0.00086578319	0.00022730019
0.16158536	0.043575779	0.00077674992	0.00022730019
0.16178229	0.038767081	0.00068776996	0.00022728802
0.16197923	0.043395024	0.00077158457	0.00022728802
0.16217616	0.047997456	0.00085231563	0.00022728802
0.1623731	0.043935053	0.00078038179	0.00022728802
0.16257003	0.044747699	0.00079348957	0.00022728802
0.16276696	0.042249046	0.00074943568	0.00022730592
0.16296391	0.054637864	0.00096984551	0.00022728802
0.16316085	0.037962671	0.00067161041	0.00022730019
0.16335778	0.047453336	0.00084069825	0.00022728802
0.16355471	0.044122282	0.00077956752	0.00022728802
0.16375165	0.0377663	0.00067507738	0.00022728802
0.16394858	0.044800524	0.000806364	0.00022728802
0.16414551	0.03623898	0.00065135333	0.00022728802
0.16434245	0.03569068	0.00064546289	0.00022728802
0.16453938	0.039228722	0.00071162067	0.00022728802
0.16473632	0.040427666	0.00073521899	0.00022729376
0.16493326	0.047843665	0.0008744169	0.00022728802
0.1651302	0.040254947	0.00073387165	0.00022727586
0.16532713	0.046169631	0.00084990595	0.00022728802
0.16552407	0.04265403	0.00078100973	0.00022727586
0.165721	0.045084745	0.00082610123	0.00022728802
0.16591793	0.041537933	0.00076613924	0.00022727586
0.16611487	0.039081249	0.00072004204	0.00022727586
0.1663118	0.044444446	0.00082446594	0.00022728802
0.16650873	0.036782399	0.00067811843	0.00022728802
0.16670567	0.039269719	0.00072514481	0.00022728159
0.16690262	0.042723168	0.00079249742	0.00022727586
0.16709955	0.040055729	0.00074375403	0.00022727586
0.16729648	0.042134833	0.00078549463	0.00022727586
0.16749342	0.044916436	0.00083436607	0.00022727586
0.16769035	0.040923398	0.00076120195	0.00022727586
0.16788729	0.043785311	0.00081889785	0.00022727586
0.16808422	0.041029207	0.00076117634	0.00022727586
0.16828115	0.036840241	0.00068944477	0.00022727586
0.16847809	0.037934668	0.00070722948	0.00022726369
0.16867502	0.046919771	0.00088384893	0.00022728159
0.16887197	0.040794607	0.000764255	0.00022727586
0.1690689	0.037076272	0.00069261302	0.00022726369
0.16926584	0.038024165	0.00071275048	0.00022727586
0.16946277	0.036324788	0.00068171835	0.00022727586
0.1696597	0.038834952	0.00073262129	0.00022726369
0.16985664	0.045600284	0.00085699843	0.00022726369
0.17005357	0.036798857	0.00069150497	0.00022727586
0.17025051	0.041322313	0.00077949127	0.00022726369
0.17044744	0.034062389	0.00064105116	0.00022726369
0.17064437	0.034954954	0.00065967772	0.00022726943
0.17084132	0.036717061	0.00069259026	0.00022727586
0.17103826	0.041165754	0.00078119757	0.00022726369
0.17123519	0.044878755	0.00085004664	0.00022726369
0.17143212	0.043212101	0.00081604335	0.00022726369
0.17162906	0.044878755	0.00084960018	0.00022726369
0.17182599	0.044749189	0.00084570079	0.00022726369
0.17202292	0.040132549	0.00076563068	0.00022726369
0.17221986	0.04537205	0.00086045032	0.00022726369
0.17241679	0.037550129	0.00071292755	0.00022726369
0.17261373	0.039372951	0.00074751076	0.00022725726
0.17281067	0.038587552	0.00073203322	0.00022726369
0.17300761	0.034849595	0.00066325569	0.00022726369
0.17320454	0.040087465	0.00076141709	0.00022725153
0.17340147	0.039881833	0.0007623157	0.00022725153
0.17359841	0.03722816	0.00070984114	0.00022725153
0.17379534	0.04223283	0.00080490706	0.00022726369
0.17399228	0.032636598	0.00062061439	0.00022726369
0.17418921	0.039956011	0.00076090771	0.00022725153
0.17438614	0.040193524	0.00077100343	0.00022725153
0.17458308	0.036873158	0.00070441974	0.00022725726
0.17478003	0.033320993	0.00063681393	0.00022725153
0.17497696	0.036229204	0.00069234916	0.00022725153
0.17517389	0.035268184	0.00067184382	0.00022725153
0.17537083	0.035219185	0.00067751098	0.00022723936
0.17556776	0.037296899	0.00071251561	0.00022723936
0.17576469	0.03986587	0.00076550042	0.00022723936
0.17596163	0.037742902	0.00072533591	0.00022725153
0.17615856	0.041187383	0.00078930397	0.00022725153
0.1763555	0.035355415	0.00067790202	0.00022725153
0.17655243	0.048255384	0.00092591136	0.00022724509
0.17674938	0.038317055	0.00073828461	0.00022723936
0.17694631	0.039745033	0.00076528947	0.00022723936
0.17714325	0.038533483	0.00074140128	0.00022725153
0.17734018	0.040180247	0.00077430072	0.00022723936
0.17753711	0.041279286	0.00079201249	0.00022723936
0.17773405	0.031930879	0.00061456882	0.00022723936
0.17793098	0.040754717	0.00078748225	0.00022723936
0.17812791	0.03489681	0.00067191676	0.00022723936
0.17832485	0.037608124	0.00072529464	0.00022723936
0.17852178	0.037636433	0.00072618725	0.00022724509
0.17871873	0.034730088	0.00067051157	0.00022723936
0.17891566	0.037622273	0.0007253369	0.00022723936
0.1791126	0.044200983	0.00085446902	0.00022722721
0.17930953	0.036617592	0.00070730562	0.00022723936
0.17950647	0.043214556	0.00083712558	0.00022723936
0.1797034	0.03289225	0.00063565304	0.00022723936
0.17990033	0.034703884	0.00066975289	0.00022723936
0.18009727	0.035741445	0.00069295627	0.00022722721
0.1802942	0.038243089	0.00074002444	0.00022722721
0.18049113	0.028702641	0.00055745174	0.00022723294
0.18068808	0.030314513	0.00058586861	0.00022722721
0.18088502	0.035998486	0.00069617078	0.00022722721
0.18108195	0.035060976	0.00068028079	0.00022722721
0.18127888	0.039528698	0.00076649967	0.00022722721
0.18147582	0.041221373	0.00080118701	0.00022722721
0.18167275	0.041350532	0.00080116169	0.00022722721
0.18186969	0.039463602	0.00076833676	0.00022722721
0.18206662	0.034509201	0.00067177083	0.00022722721
0.18226355	0.02990159	0.00057768507	0.00022721505
0.18246049	0.036056772	0.00070150435	0.00022723294
0.18265744	0.033982437	0.00065999187	0.00022721505
0.18285437	0.032282859	0.00062876672	0.00022722721
0.1830513	0.034628704	0.00067492609	0.00022722721
0.18324824	0.028952381	0.00056028622	0.00022721505
0.18344517	0.037663337	0.00073394598	0.00022721505
0.1836421	0.03834356	0.0007464494	0.00022721505
0.18383904	0.031923078	0.00062203396	0.00022721505
0.18403597	0.039969254	0.00077935122	0.00022721505
0.18423291	0.032320123	0.00062958436	0.00022721505
0.18442984	0.029058505	0.00056754483	0.00022722078
0.18462679	0.034892637	0.00067911833	0.00022721505
0.18482372	0.040493637	0.0007906307	0.00022721505
0.18502066	0.037279017	0.0007265585	0.00022721505
0.18521759	0.034416087	0.00067240896	0.00022721505
0.18541452	0.034856699	0.00068168883	0.00022721505
0.18561146	0.034708831	0.00067735504	0.00022721505
0.18580839	0.030840401	0.00060108636	0.00022721505
0.18600532	0.04258614	0.00083308714	0.00022720288
0.18620226	0.035700426	0.00069797423	0.00022721505
0.18639919	0.038342372	0.00075020018	0.00022722078
0.18659614	0.034108527	0.00066694128	0.00022720288
0.18679307	0.040171608	0.00078873255	0.00022720288
0.18699001	0.038654812	0.00075555797	0.00022720288
0.18718694	0.032672111	0.00064008252	0.00022720288
0.18738388	0.03763441	0.00073348678	0.00022720288
0.18758081	0.038446449	0.00075751677	0.00022721505
0.18777774	0.03420132	0.00066984049	0.00022720288
0.18797468	0.042834889	0.00084088987	0.00022720288
0.18817161	0.035463758	0.00069586217	0.00022719071
0.18836854	0.038312692	0.00074940664	0.00022720861
0.18856549	0.034225021	0.00067432009	0.00022719071
0.18876243	0.039314907	0.00077066716	0.00022720288
0.18895936	0.046783626	0.00091864483	0.00022720288
0.18915629	0.041031651	0.00080659002	0.00022719071
0.18935323	0.039437719	0.00077520404	0.00022719071
0.18955016	0.041977245	0.00082733948	0.00022720288
0.1897471	0.034978624	0.00068484043	0.00022719071
0.18994403	0.041471049	0.0008159054	0.00022720288
0.19014096	0.030720755	0.00060527102	0.00022719071
0.1903379	0.02919424	0.0005719394	0.00022719646
0.19053484	0.032690037	0.00064411352	0.00022719071
0.19073178	0.035436139	0.00069513422	0.00022719071
0.19092871	0.038158931	0.0007521942	0.00022719071
0.19112565	0.032411069	0.00063997327	0.00022719071
0.19132258	0.035463758	0.00069586217	0.00022719071
0.19151951	0.034659315	0.00068253663	0.00022719071
0.19171645	0.029065201	0.00057181192	0.00022719071
0.19191338	0.038991731	0.00076902314	0.00022717856
0.19211031	0.034117647	0.00067105901	0.00022719071
0.19230725	0.029053789	0.00057073304	0.00022719646
0.1925042	0.043668121	0.00086540316	0.00022719071
0.19270113	0.035798583	0.00070539623	0.00022719071
0.19289806	0.03977944	0.00078483555	0.00022719071
0.193095	0.031335682	0.00061562599	0.00022717856
0.19329193	0.040492259	0.00080266816	0.00022719071
0.19348887	0.037579115	0.00074327824	0.00022717856
0.1936858	0.036570977	0.00072102004	0.00022717856
0.19388273	0.033149172	0.00065396662	0.00022717856
0.19407967	0.035601266	0.0007032979	0.00022717856
0.1942766	0.027500996	0.00054503197	0.0002271843
0.19447355	0.028560251	0.00056028541	0.00022717856
0.19467048	0.030122869	0.00059555098	0.00022717856
0.19486742	0.028876582	0.00056983833	0.0002271664
0.19506435	0.027413588	0.0005419724	0.0002271664
0.19526128	0.034702834	0.00068886112	0.0002271664
0.19545822	0.033294164	0.00065471698	0.0002271664
0.19565515	0.042851422	0.00085286907	0.0002271664
0.19585209	0.027380953	0.00053996383	0.0002271664
0.19604902	0.034441806	0.00068055553	0.0002271664
0.19624595	0.032270916	0.00063947949	0.00022717213
0.1964429	0.03033885	0.00059749099	0.00022717856
0.19663984	0.034054488	0.00067679968	0.0002271664
0.19683677	0.03160806	0.00062396796	0.0002271664
0.1970337	0.03115016	0.00061811041	0.0002271664
0.19723064	0.041319031	0.00081924308	0.0002271664
0.19742757	0.031374108	0.00062058168	0.0002271664
0.1976245	0.030509835	0.00060706522	0.00022715423
0.19782144	0.037212986	0.00073611061	0.0002271664
0.19801837	0.037539937	0.00074557797	0.0002271664
0.19821531	0.027124053	0.00053724187	0.00022715998
0.19841225	0.034633759	0.00068634556	0.0002271664
0.19860919	0.028823059	0.00057233934	0.00022715423
0.19880612	0.032897346	0.0006501553	0.00022715423
0.19900306	0.030558906	0.00060831674	0.00022715423
0.19919999	0.041084964	0.00081555423	0.00022715423
0.19939692	0.038247012	0.00075832941	0.00022715423
0.19959386	0.029032258	0.00057835586	0.0002271664
0.19979079	0.034633759	0.00068671326	0.00022715423
0.19998772	0.033667333	0.00066945818	0.00022715423
0.20018466	0.034290273	0.00068020169	0.00022715998
0.20038161	0.029352633	0.00058421213	0.00022715423
0.20057854	0.038015205	0.00075625564	0.00022715423
0.20077547	0.02796644	0.0005541771	0.00022715423
0.20097241	0.037051953	0.00073869579	0.00022715423
0.20116934	0.034345049	0.00068192591	0.00022715423
0.20136628	0.033400401	0.00066551915	0.00022714208
0.20156321	0.03042434	0.00060430256	0.00022715423
0.20176014	0.031035872	0.00061862601	0.00022714208
0.20195708	0.026821457	0.00053212792	0.00022715423
0.20215401	0.035298835	0.00070234481	0.00022715998
0.20235096	0.033024568	0.00065803365	0.00022714208
0.20254789	0.030012004	0.00059571088	0.00022714208
0.20274483	0.026774848	0.00053466851	0.00022714208
0.20294176	0.031212484	0.00061975984	0.00022714208
0.20313869	0.023039611	0.00045864299	0.00022714208
0.20333563	0.032727271	0.00065359887	0.00022714208
0.20353256	0.033851054	0.00067102595	0.00022712992
0.2037295	0.026807474	0.00053577131	0.00022712992
0.20392643	0.031237485	0.00062060822	0.00022714208
0.20412336	0.036120132	0.00072296849	0.00022714782
0.20432031	0.035469569	0.00070698414	0.00022714208
0.20451725	0.036086608	0.00071791024	0.00022714208
0.20471418	0.030463038	0.00060941203	0.00022712992
0.20491111	0.025989603	0.00051503372	0.00022714208
0.20510805	0.034132466	0.00068298826	0.00022712992
0.20530498	0.025848143	0.00051485247	0.00022712992
0.20550191	0.032517061	0.0006468108	0.00022712992
0.20569885	0.031836733	0.0006383413	0.00022712992
0.20589578	0.030072173	0.00059728761	0.00022712992
0.20609272	0.032179225	0.00064494013	0.00022713565
0.20628966	0.02458686	0.00048884907	0.00022712992
0.2064866	0.029614605	0.00059126149	0.00022711777
0.20668353	0.03211382	0.00064224255	0.00022712992
0.20688047	0.033037871	0.00065773545	0.00022712992
0.2070774	0.032414909	0.00064770668	0.00022711777
0.20727433	0.031816352	0.00063375098	0.00022711777
0.20747127	0.027291242	0.00054604764	0.00022711777
0.2076682	0.028432168	0.00056807959	0.00022712992
0.20786513	0.029506871	0.00058826228	0.00022712992
0.20806207	0.035830621	0.00071780779	0.0002271235
0.20825902	0.037141703	0.00074120419	0.00022711777
0.20845595	0.033822332	0.00067777192	0.00022711777
0.20865288	0.029090909	0.00057965441	0.00022711777
0.20884982	0.032666393	0.0006555717	0.00022711777
0.20904675	0.03213995	0.00064375962	0.00022711777
0.20924369	0.038133875	0.00076334446	0.0002271056
0.20944062	0.02835156	0.00056590006	0.00022711777
0.20963755	0.030806648	0.00061627099	0.00022711777
0.20983449	0.029194079	0.00058733352	0.00022711777
0.21003142	0.03125	0.00062482606	0.00022711133
0.21022837	0.030944625	0.00061965408	0.00022711777
0.2104253	0.025672372	0.00051302649	0.00022711777
0.21062224	0.033857316	0.00067435671	0.0002271056
0.21081917	0.036670785	0.00073909306	0.0002271056
0.2110161	0.032793522	0.00065517955	0.0002271056
0.21121304	0.032980457	0.00066038151	0.0002271056
0.21140997	0.028128821	0.00056332356	0.0002271056
0.2116069	0.030637255	0.00061464799	0.0002271056
0.21180384	0.034383953	0.00069104816	0.0002271056
0.21200077	0.041212123	0.00082344952	0.00022711133
0.21219772	0.034156378	0.00068824447	0.00022709343
0.21239465	0.034100246	0.00068685145	0.0002271056
0.21259159	0.032493908	0.00065028237	0.0002271056
0.21278852	0.031836733	0.0006383413	0.0002271056
0.21298546	0.03409091	0.00068193726	0.00022709343
0.21318239	0.028052805	0.00056494976	0.00022709343
0.21337932	0.031655844	0.0006328022	0.00022709343
0.21357626	0.031875767	0.00064004929	0.0002271056
0.21377319	0.040033016	0.00080837734	0.0002271056
0.21397012	0.030525031	0.00061105273	0.00022709918
0.21416707	0.030649776	0.00061424728	0.00022709343
0.21436401	0.022421524	0.00044775588	0.00022709343
0.21456094	0.027526705	0.00055350672	0.00022709343
0.21475787	0.028735632	0.00057755952	0.00022708128
0.21495481	0.035145074	0.00070599111	0.00022709343
0.21515174	0.030315444	0.00060899294	0.00022709343
0.21534868	0.024150634	0.0004842724	0.00022708128
0.21554561	0.034582134	0.00069703208	0.00022709343
0.21574254	0.023284314	0.00046597017	0.00022708128
0.21593948	0.032510288	0.00065491977	0.00022709918
0.21613643	0.029556651	0.00059421483	0.00022708128
0.21633336	0.030750308	0.00061783055	0.00022708128
0.21653029	0.037797865	0.00076157297	0.00022708128
0.21672723	0.039167687	0.00078631099	0.00022709343
0.21692416	0.043298971	0.00087420974	0.00022708128
0.21712109	0.038603697	0.00077767496	0.00022708128
0.21731803	0.035318274	0.00071141194	0.00022708128
0.21751496	0.033758748	0.00068020431	0.00022708128
0.2177119	0.030549899	0.00061202067	0.00022708128
0.21790883	0.03531367	0.00071498839	0.00022708702
0.21810578	0.036356211	0.00073016237	0.00022708128
0.21830271	0.028512396	0.00057488692	0.00022708128
0.21849965	0.030452674	0.00061301957	0.00022706912
0.21869658	0.028232405	0.00056619645	0.00022708128
0.21889351	0.035655059	0.00072131678	0.00022706912
0.21909045	0.037279803	0.0007498159	0.00022706912
0.21928738	0.042509288	0.0008591548	0.00022706912
0.21948431	0.028877888	0.00058173353	0.00022706912
0.21968125	0.03000411	0.00060377206	0.00022706912
0.21987818	0.035905901	0.00072489976	0.00022707487
0.22007513	0.021694638	0.0004343802	0.00022706912
0.22027206	0.025300706	0.00051043532	0.00022706912
0.220469	0.020114943	0.00040293709	0.00022706912
0.22066593	0.027731787	0.00055970479	0.00022705697
0.22086287	0.023878139	0.00047952356	0.00022705697
0.2210598	0.037494849	0.00075603637	0.00022705697
0.22125673	0.032271411	0.00065124326	0.00022705697
0.22145367	0.02892562	0.00058317662	0.00022705697
0.2216506	0.021487603	0.00043217698	0.00022706912
0.22184753	0.034979425	0.00070486002	0.00022707487
0.22204448	0.031535272	0.00063736999	0.00022705697
0.22224142	0.033415843	0.00067381607	0.00022705697
0.22243835	0.02556701	0.00051440811	0.00022705697
0.22263528	0.025290215	0.0005099781	0.00022705697
0.22283222	0.026726974	0.00053698057	0.00022704482
0.22302915	0.035803497	0.00072572712	0.00022705697
0.22322609	0.02850062	0.00057440798	0.00022704482
0.22342302	0.032059185	0.00064493658	0.00022704482
0.22361995	0.034869239	0.00070532592	0.00022705697
0.22381689	0.025598679	0.00051522761	0.0002270627
0.22401384	0.028392484	0.00057562295	0.00022704482
0.22421077	0.030041153	0.00060477538	0.00022704482
0.2244077	0.019461697	0.00039168875	0.00022704482
0.22460464	0.021639617	0.00043644157	0.00022704482
0.22480157	0.018891171	0.00037799415	0.00022704482
0.2249985	0.025995808	0.00052768469	0.00022704482
0.22519544	0.028278688	0.0005680747	0.00022704482
0.22539237	0.024948025	0.00050428242	0.00022704482
0.22558931	0.036804684	0.00074786809	0.00022704482
0.22578624	0.026563138	0.00053230661	0.00022703838
0.22598319	0.027488546	0.00055632112	0.00022703265
0.22618012	0.023976849	0.00048308607	0.00022704482
0.22637706	0.029719548	0.00060265575	0.00022704482
0.22657399	0.034397017	0.00069399417	0.00022703265
0.22677092	0.033582091	0.00067790563	0.00022703265
0.22696786	0.030679934	0.0006193202	0.00022703265
0.22716479	0.028985508	0.00058425992	0.00022704482
0.22736172	0.038477626	0.00078118237	0.00022703265
0.22755866	0.037190083	0.00075071823	0.00022703265
0.22775559	0.036356039	0.0007374878	0.00022703265
0.22795253	0.035655059	0.00072111905	0.00022703838
0.22814947	0.032392025	0.00065555435	0.00022703265
0.22834641	0.031094527	0.00062800798	0.00022703265
0.22854334	0.038637307	0.0007828091	0.0002270205
0.22874027	0.03152585	0.00064181705	0.00022703265
0.22893721	0.034667768	0.00069982413	0.00022703265
0.22913414	0.030782029	0.00062287721	0.0002270205
0.22933108	0.029069768	0.00058729795	0.0002270205
0.22952801	0.031679865	0.00064232358	0.0002270205
0.22972494	0.028738026	0.00058122806	0.0002270205
0.22992188	0.029436152	0.000594415	0.00022703838
0.23011883	0.027049873	0.00055021641	0.0002270205
0.23031576	0.02601156	0.0005233633	0.0002270205
0.23051269	0.028714107	0.00058075087	0.0002270205
0.23070963	0.032083333	0.00064887421	0.0002270205
0.23090656	0.038142622	0.00077127852	0.00022700834
0.23110349	0.0272651	0.00055207941	0.00022700834
0.23130043	0.026282854	0.0005313002	0.0002270205
0.23149736	0.029534109	0.00059738499	0.0002270205
0.2316943	0.03467001	0.000703622	0.0002270205
0.23189123	0.031548359	0.00063787913	0.00022701408
0.23208818	0.037720032	0.00076691993	0.00022700834
0.23228511	0.030391341	0.0006151477	0.00022700834
0.23248205	0.036773924	0.00074683281	0.00022700834
0.23267898	0.026392963	0.00053505541	0.00022700834
0.23287591	0.030340815	0.00061396521	0.00022700834
0.23307285	0.034295272	0.0006956454	0.00022700834
0.23326978	0.03002502	0.00060815841	0.00022700834
0.23346671	0.028380634	0.0005743769	0.00022700834
0.23366365	0.030698065	0.00062460417	0.00022700834
0.23386058	0.021285476	0.00042964151	0.00022701408
0.23405753	0.019405451	0.00038944965	0.00022699618
0.23425446	0.021876315	0.00044311894	0.00022700834
0.2344514	0.02432886	0.00049301673	0.00022699618
0.23464833	0.024237359	0.00049098162	0.00022699618
0.23484527	0.017558528	0.00035416667	0.00022700834
0.2350422	0.026337793	0.00053351547	0.00022700834
0.23523913	0.023939522	0.0004857789	0.00022699618
0.23543607	0.028309742	0.00057260413	0.00022699618
0.235633	0.026337793	0.00053365243	0.00022699618
0.23582993	0.026811898	0.00054378266	0.00022700192
0.23602688	0.026105262	0.00053003605	0.00022698403
0.23622382	0.027928304	0.00056528114	0.00022699618
0.23642075	0.030467445	0.00061757793	0.00022699618
0.23661768	0.021374686	0.00043251604	0.00022698403
0.23681462	0.025252525	0.00051310839	0.00022698403
0.23701155	0.028416215	0.00057596469	0.00022699618
0.23720849	0.025480367	0.00051531702	0.00022698403
0.23740542	0.027707808	0.00056272856	0.00022699618
0.23760235	0.022222223	0.00045032371	0.00022698403
0.23779929	0.027299454	0.00055432797	0.00022698977
0.23799624	0.02378965	0.00048107246	0.00022698403
0.23819317	0.017654477	0.00035748997	0.00022698403
0.2383901	0.025188917	0.00051117066	0.00022698403
0.23858704	0.02052786	0.00041505517	0.00022698403
0.23878397	0.020536462	0.00041584781	0.00022698403
0.2389809	0.021392617	0.00043340138	0.00022697187
0.23917784	0.031105507	0.00063307496	0.00022697187
0.23937477	0.02569503	0.00052155694	0.00022698403
0.23957171	0.02596315	0.00052641146	0.00022697187
0.23976864	0.021684738	0.00043797318	0.00022697762
0.23996559	0.019368421	0.00039221992	0.00022697187
0.24016252	0.026226735	0.00053416583	0.00022697187
0.24035946	0.025138475	0.00051399	0.00022697187
0.24055639	0.023668639	0.00048170402	0.00022697187
0.24075332	0.025979556	0.00053111895	0.00022697187
0.24095026	0.035178035	0.00072311732	0.00022697187
0.24114719	0.025106383	0.00051285565	0.00022697187
0.24134412	0.035117771	0.00072191312	0.00022697187
0.24154106	0.032786883	0.0006759325	0.00022697187
0.24173799	0.022874407	0.00047012471	0.00022696547
0.24193494	0.029079862	0.00060019759	0.00022697187
0.24213187	0.031841651	0.00065519777	0.00022695972
0.24232881	0.026672497	0.00055296649	0.00022697187
0.24252574	0.022299957	0.00046163148	0.00022695972
0.24272268	0.029257642	0.00060653541	0.00022695972
0.24291961	0.036547776	0.00076178554	0.00022695972
0.24311654	0.035248041	0.00073033414	0.00022695972
0.24331348	0.031097289	0.00065034954	0.00022695972
0.24351041	0.022486772	0.00046689474	0.00022695972
0.24370734	0.024207747	0.00050181232	0.00022696547
0.24390429	0.020017793	0.00041694209	0.00022695972
0.24410123	0.021466905	0.00044872548	0.00022695972
0.24429816	0.023090586	0.00048161819	0.00022694757
0.24449509	0.018730015	0.00039526424	0.00022694757
0.24469203	0.021658987	0.00045987242	0.00022695972
0.24488896	0.025304593	0.00054242695	0.00022694757
0.2450859	0.021156559	0.00045348614	0.00022694757
0.24528283	0.025082821	0.00054003246	0.00022694757
0.24547976	0.0219361	0.00047321749	0.00022694757
0.2456767	0.028873917	0.00062808022	0.0002269533
0.24587364	0.02020202	0.00043684579	0.00022694757
0.24607058	0.020883923	0.00045345293	0.0002269354
0.24626751	0.024224807	0.00052712485	0.00022694757
0.24646445	0.016740521	0.00036572199	0.00022694757
0.24666138	0.017199017	0.00037491773	0.00022694757
0.24685831	0.027627034	0.00060768489	0.0002269354
0.24705525	0.022354694	0.00049230666	0.0002269354
0.24725218	0.023964053	0.00052974146	0.0002269354
0.24744911	0.025138261	0.00055790815	0.00022694757
0.24764605	0.025987007	0.0005752556	0.00022694115
0.247843	0.025679758	0.0005698076	0.0002269354
0.24803993	0.032208588	0.00072190276	0.0002269354
0.24823686	0.01742696	0.00038775511	0.0002269354
0.2484338	0.015274949	0.00033857761	0.00022692325
0.24863073	0.025720164	0.00057621452	0.0002269354
0.24882767	0.025720164	0.00057692314	0.00022692325
0.2490246	0.024831867	0.00055778841	0.00022692325
0.24922153	0.028213166	0.00063860411	0.00022692325
0.24941847	0.017125065	0.00038352882	0.00022692325
0.2496154	0.021613073	0.00048967183	0.000226929
0.24981235	0.01531151	0.00034451825	0.00022692965
0.25000927	0.024020888	0.00054226944	0.00022692325
0.2502062	0.025066666	0.00057179033	0.0002269354
0.25040314	0.025423728	0.00057836674	0.0002269111
0.25060007	0.025419146	0.00058362412	0.0002269226
0.25079703	0.022435898	0.00051158277	0.0002269111
0.25099397	0.029016657	0.00066468306	0.0002269111
0.2511909	0.036896363	0.00085033715	0.0002269111
0.25138783	0.033387184	0.00076667004	0.0002269111
0.25158477	0.034332424	0.00079346431	0.0002269111
0.2517817	0.028930131	0.00066871138	0.0002269111
0.25197864	0.022465754	0.00051862176	0.0002269111
0.25217557	0.023822716	0.00055432366	0.0002269111
0.2523725	0.029088913	0.00067373441	0.0002269111
0.25256944	0.02167871	0.0005029536	0.0002269111
0.25276637	0.015546918	0.00035793224	0.0002269111
0.2529633	0.018425461	0.00042804139	0.0002268868
0.25316024	0.021396397	0.00050041679	0.0002269111
0.25335717	0.025582718	0.00060211326	0.0002269111
0.25355411	0.029291155	0.00070146372	0.0002269111
0.25375104	0.027677497	0.00067104143	0.0002269111
0.25394797	0.028381642	0.000689551	0.0002268868
0.25414491	0.027641278	0.00067658973	0.0002269111
0.25434184	0.022137888	0.00054892508	0.0002269111
0.25453877	0.0234375	0.00058844156	0.0002269226
0.25473574	0.021490933	0.00054613675	0.0002268868
0.25493267	0.018392371	0.00047055233	0.0002269111
0.25512961	0.022948539	0.000595005	0.0002269111
0.25532654	0.019162526	0.00049970695	0.0002269111
0.25552347	0.02403496	0.0006389757	0.0002268868
0.25572041	0.016666668	0.00044835775	0.0002269111
0.25591734	0.022690438	0.00063202454	0.0002269111
0.25611427	0.023215821	0.00066641526	0.0002268868
0.25631121	0.02739726	0.0008097043	0.0002268868
0.25650814	0.022620169	0.00068014459	0.0002268868
0.25670508	0.026137464	0.00079385203	0.0002268868
0.25690201	0.028541226	0.00090588426	0.0002268868
0.25709894	0.030303031	0.00099107611	0.0002268868
0.25729588	0.025974026	0.00086678989	0.0002268868
0.25749281	0.026378896	0.00088519586	0.0002268868
0.25768974	0.047798742	0.0016654908	0.0002268868
0.25788668	0.025873221	0.00090282958	0.0002268868
0.25808361	0.028037382	0.00099566684	0.0002268868
0.25828055	0.010943913	0.0003788918	0.0002268868
0.25847748	0.034334764	0.0012606507	0.00022689829
0.25867444	0.021834061	0.00080151728	0.00022686248
0.25887138	0.02293578	0.00086297328	0.00022686248
0.25906831	0.023148147	0.00087918947	0.00022686248
0.25926524	0.030110935	0.0011573641	0.0002268868
0.25946218	0.035117056	0.0013992644	0.00022686248
0.25965911	0.030560272	0.0012247763	0.0002268868
0.25985605	0.032928944	0.0013276123	0.0002268868
0.26005298	0.029513888	0.0011940652	0.00022686248
0.26024991	0.020979021	0.00084056804	0.00022686248
0.26044685	0.033928573	0.0013967514	0.0002268868
0.26064378	0.021390375	0.00085884501	0.00022686248
0.26084071	0.043165468	0.0017806484	0.00022686248
0.26103765	0.040515654	0.0016854989	0.00022686248
0.26123458	0.011111111	0.00042207621	0.00022686248
0.26143152	0.01509434	0.00060282764	0.0002268868
0.26162845	0.020332716	0.00083426147	0.00022686248
0.26182538	0.026768642	0.0011227919	0.00022686248
0.26202232	0.04109589	0.0017674237	0.00022686248
0.26221925	0.019841271	0.00083927967	0.00022686248
0.26241618	0.024856597	0.0010385405	0.00022684968
0.26261315	0.029761905	0.0012820209	0.00022683818
0.26281008	0.030487806	0.0013228963	0.00022686248
0.26300701	0.024640657	0.0010620002	0.00022686248
0.26320395	0.026156941	0.0011284051	0.00022683818
0.26340088	0.021141648	0.00091287051	0.00022686248
0.26359782	0.025104603	0.0011005249	0.00022683818
0.26379475	0.040598292	0.001828558	0.00022686248
0.26399168	0.036324788	0.0016307229	0.00022683818
0.26418862	0.026086956	0.0011657967	0.00022683818
0.26438555	0.035794184	0.0016410835	0.00022683818
0.26458248	0.022883296	0.0010396725	0.00022683818
0.26477942	0.033632286	0.0015329105	0.00022683818
0.26497635	0.020979021	0.00095606426	0.00022686248
0.26517329	0.027972028	0.0012945172	0.00022683818
0.26537022	0.03178484	0.0015118506	0.00022683818
0.26556715	0.024038462	0.0011194479	0.00022683818
0.26576409	0.044554457	0.0021568842	0.00022683818
0.26596102	0.037878789	0.0018412634	0.00022683818
0.26615795	0.062176164	0.0030964471	0.00022683818
0.26635489	0.040920716	0.001997926	0.00022684968
0.26655185	0.034482758	0.0017085474	0.00022681388
0.26674879	0.035616439	0.0017935717	0.00022683818
0.26694572	0.037837837	0.0018981075	0.00022683818
0.26714265	0.032876711	0.001649846	0.00022681388
0.26733959	0.011299435	0.00052083482	0.00022681388
0.26753652	0.039999999	0.0020518966	0.00022681388
0.26773345	0.027190333	0.0014111763	0.00022683818
0.26793039	0.032835823	0.0017130825	0.00022683818
0.26812732	0.029585799	0.0015289371	0.00022683818
0.26832426	0.015625	0.00078247359	0.00022683818
0.26852119	0.012698413	0.00062060496	0.00022683818
0.26871812	0.019292604	0.001000275	0.00022683818
0.26891506	0.019292604	0.001000275	0.00022681388
0.26911199	0.01010101	0.00047937271	0.00022683818
0.26930892	0.016778523	0.00087080419	0.00022683818
0.26950586	0.024221454	0.0013213885	0.00022683818
0.26970279	0.027491409	0.0015100872	0.00022681388
0.26989973	0.0072463769	0.00030898655	0.00022681388
0.27009666	0.014981274	0.00079549698	0.00022681388
0.27029359	0.038167939	0.0022162553	0.00022684968
0.27049056	0.014652015	0.00076938467	0.00022681388
0.27068749	0.0077821012	0.00034392352	0.00022681388
0.27088442	0.012048192	0.00062466972	0.00022681388
0.27108136	0.0041841003	0	0.00022681388
0.27127829	0.0084033618	0.00038597916	0.00022681388
0.27147523	0	0	0.00022681388
0.27167216	0	0	0.00022681388
0.27186909	0	0	0.00022681388
0.27206603	0	0	0.00022681388
0.27226296	0.33333334	0.10540926	0.00022681388
