#   DataFileName=PAL30_70C_WAXS_08172017.tif
#   DataFileType=.tif
#   
#   DataFilePath=E:DATA:PAL30_08262017:
#   
#   Processed on=Wed, Jan 16, 2019,2:41:31 AM
#   Units=Arbitrary
#   SampleThickness=1
#   SampleTransmission=1
#   CorrectionFactor=1
#   SampleMeasurementTime=1
#   EmptyMeasurementTime=1
#   BackgroundMeasTime=1
#   SampleI0=1
#   EmptyI0=1
#   Nika_SampleToDetectorDistacne=1552.1
#   Nika_Wavelength=1.54
#   Nika_XrayEnergy=8.0509
#   Nika_PixelSizeX=0.075
#   Nika_PixelSizeY=0.075
#   Nika_HorizontalTilt=0
#   Nika_VerticalTilt=0
#   Nika_BeamCenterX=1540.3
#   Nika_BeamCenterY=830.17
#   Nika_BeamSizeX=0
#   Nika_BeamCenterY=830.17
#   CalibrationFormula=1*((Sa2D))
#   CurrentMaskFileName=PAL30_30C_WAXS_mask.hdf
#   QvectorMaxNumPnts=1
#   QvectorNumberPoints=1383
#   CircularAverage=1
#   PolarizationCorrection=None
#   UncertainityCalculationMethod=OldNikaMethod

0.0060065244	4.5	3	0.00022756745
0.00620346	2.76	0.54344577	0.00022756765
0.0064003952	2.9824562	0.39288062	0.00022756765
0.0065973303	2.9625001	0.32963467	0.00022756765
0.0067942655	4.5408163	0.45518634	0.00022756765
0.0069912006	5.9158878	0.56136453	0.00022756745
0.0071881362	7.122951	0.62729967	0.00022756727
0.0073850714	8.3816795	0.71144688	0.00022756727
0.0075820065	8.3034487	0.67625779	0.00022756727
0.0077789417	8.0748301	0.65336788	0.00022756745
0.0079758773	7.1772151	0.5608992	0.00022756746
0.0081728119	6.3251534	0.48734298	0.00022756707
0.0083697475	5.6404495	0.41639847	0.00022756671
0.0085666822	4.6528497	0.32971516	0.00022756783
0.0087636178	4.4307694	0.31314838	0.00022756783
0.0089605534	3.8151658	0.25901243	0.00022756746
0.0091574881	3.4585152	0.2257455	0.00022756707
0.0093544237	2.904	0.18131904	0.00022756671
0.0095513584	2.6577947	0.16199811	0.00022756707
0.009748294	2.6801472	0.16070616	0.00022756707
0.0099452296	2.3465705	0.13955218	0.00022756595
0.010142164	2.115108	0.1254285	0.00022756707
0.0103391	1.8956228	0.10892772	0.00022756671
0.010536035	1.7220339	0.099257074	0.00022756707
0.01073297	1.7039474	0.096869722	0.00022756783
0.010929906	1.6495177	0.092611633	0.00022756746
0.01112684	1.4888179	0.083363526	0.00022756783
0.011323776	1.4036144	0.076033816	0.00022756746
0.011520711	1.222561	0.066914909	0.00022756707
0.011717646	1.1952662	0.064426549	0.00022756707
0.011914582	1.1169591	0.059840787	0.00022756746
0.012111517	1.0463768	0.05591527	0.00022756783
0.012308452	1.0082418	0.052432884	0.00022756671
0.012505387	0.97740114	0.051395778	0.00022756783
0.012702323	0.8862434	0.045143496	0.00022756783
0.012899258	0.83914208	0.043077033	0.00022756671
0.013096193	0.85340315	0.043302421	0.00022756707
0.013293128	0.78516626	0.039426539	0.00022756671
0.013490063	0.78608245	0.039567951	0.00022756707
0.013686999	0.622549	0.030592961	0.00022756707
0.013883934	0.58150852	0.028508486	0.00022756671
0.014080869	0.59808612	0.029102242	0.00022756707
0.014277805	0.61647058	0.029691016	0.00022756671
0.014474739	0.54609931	0.026407	0.0002275663
0.014671675	0.53047407	0.025065904	0.00022756707
0.014868611	0.46363637	0.022000171	0.00022756671
0.015065545	0.49230769	0.02292903	0.0002275663
0.015262481	0.4635193	0.021375535	0.00022756671
0.015459416	0.389011	0.018111797	0.00022756595
0.01565635	0.41364604	0.018985687	0.00022756707
0.015853286	0.42887473	0.019642392	0.00022756554
0.016050221	0.3670103	0.016576119	0.00022756707
0.016247157	0.3825911	0.017095193	0.00022756707
0.016444093	0.38600001	0.017156594	0.00022756483
0.016641026	0.34337351	0.01529643	0.00022756707
0.016837962	0.3246493	0.014420383	0.00022756707
0.017034898	0.31517509	0.013820083	0.00022756554
0.017231833	0.33843213	0.014708147	0.00022756554
0.017428769	0.29601517	0.012823872	0.00022756483
0.017625703	0.26915887	0.01156308	0.00022756554
0.017822638	0.25698325	0.011028646	0.00022756554
0.018019574	0.30882353	0.013152016	0.00022756554
0.018216509	0.2609489	0.01107275	0.00022756554
0.018413445	0.25044721	0.010527363	0.00022756483
0.018610379	0.25795054	0.010774911	0.00022756554
0.018807314	0.18673648	0.0077465675	0.00022756554
0.01900425	0.2357019	0.0097537804	0.00022756554
0.019201186	0.21503496	0.0089227716	0.00022756554
0.019398121	0.21440536	0.0087205246	0.00022756483
0.019595055	0.20847458	0.0085350778	0.00022756554
0.019791991	0.2016529	0.0081459396	0.00022756554
0.019988926	0.19338843	0.0078212963	0.00022756554
0.020185862	0.1879085	0.0075532361	0.00022756554
0.020382797	0.19585988	0.0077785999	0.00022756483
0.020579731	0.19579288	0.0078220656	0.00022756403
0.020776667	0.18495297	0.0072837607	0.00022756403
0.020973602	0.15179969	0.0059646065	0.00022756554
0.021170538	0.1671875	0.0065700761	0.00022756403
0.021367474	0.16591252	0.0064050606	0.0002275633
0.021564407	0.16408668	0.0064141615	0.00022756403
0.021761343	0.13602391	0.0052249716	0.00022756403
0.021958278	0.16440423	0.0063533452	0.00022756403
0.022155214	0.17621145	0.0067117279	0.00022756403
0.02235215	0.125	0.0047360477	0.0002275633
0.022549083	0.15565345	0.0059199613	0.00022756403
0.022746019	0.15886524	0.005943384	0.00022756403
0.022942955	0.14777619	0.0055640941	0.00022756403
0.02313989	0.12588401	0.0047074053	0.00022756403
0.023336826	0.12831241	0.0047662784	0.0002275633
0.02353376	0.13361463	0.0049723415	0.00022756403
0.023730695	0.14925373	0.0054705604	0.00022756403
0.023927631	0.15034483	0.0055462187	0.0002275625
0.024124566	0.1380697	0.0050233151	0.00022756403
0.024321502	0.12868632	0.0046859663	0.00022756179
0.024518436	0.12751678	0.00464459	0.0002275625
0.024715371	0.12252964	0.0044181999	0.0002275625
0.024912307	0.15587847	0.0056414907	0.0002275625
0.025109243	0.11892583	0.0042281053	0.0002275625
0.025306178	0.10996119	0.003928727	0.00022756179
0.025503112	0.11111111	0.0039477833	0.0002275625
0.025700048	0.11944091	0.0042317738	0.0002275625
0.025896983	0.094147585	0.0033300675	0.0002275625
0.026093919	0.1046798	0.0036505344	0.00022756097
0.026290854	0.10545906	0.0036877622	0.00022756179
0.026487788	0.090243906	0.0031285177	0.0002275625
0.026684724	0.080684595	0.0027967556	0.00022756097
0.026881659	0.10840438	0.0037585455	0.0002275625
0.027078595	0.10023867	0.0034406104	0.00022756097
0.027275531	0.10348977	0.0035663478	0.00022756179
0.027472464	0.11059371	0.0037544209	0.00022756097
0.0276694	0.093380615	0.003187329	0.00022756097
0.027866336	0.088167056	0.0029827964	0.00022756097
0.028063271	0.1	0.0033888114	0.00022756097
0.028260207	0.087412588	0.0029649148	0.00022756026
0.028457141	0.085297421	0.0028383094	0.00022756097
0.028654076	0.10329171	0.0034606638	0.00022756097
0.028851012	0.096196868	0.0031990213	0.00022756097
0.029047947	0.10190369	0.003391946	0.00022756097
0.029244883	0.098987624	0.0032981306	0.00022756026
0.029441817	0.094771244	0.0031082549	0.00022756097
0.029638752	0.082417585	0.002709456	0.00022755946
0.029835688	0.065803669	0.0021440585	0.00022756097
0.030032624	0.090322584	0.0029440052	0.00022755946
0.030229559	0.080086581	0.0026143296	0.00022755875
0.030426493	0.068085104	0.0022028058	0.00022755946
0.030623429	0.087326944	0.0028308982	0.00022755946
0.030820364	0.08255934	0.0026360862	0.00022755946
0.0310173	0.079915881	0.0025734385	0.00022755946
0.031214235	0.080912866	0.0025897499	0.00022755946
0.031411171	0.089322381	0.0028447553	0.00022755875
0.031608105	0.069286451	0.0022080485	0.00022755571
0.031805038	0.06066734	0.0019117697	0.00022756017
0.032001976	0.0950455	0.0030052639	0.00022755875
0.03219891	0.089447238	0.0028200296	0.00022756017
0.032395847	0.093906097	0.0029503531	0.00022755875
0.032592781	0.081429988	0.0025497277	0.00022755875
0.032789715	0.088062622	0.0027389319	0.00022756017
0.032986652	0.062068965	0.0019326741	0.00022755571
0.033183586	0.064264849	0.0019910608	0.00022755713
0.033380523	0.077071294	0.0023783282	0.00022755875
0.033577457	0.074181117	0.0022862288	0.00022755571
0.033774391	0.086749285	0.0026636282	0.00022755713
0.033971328	0.078244276	0.00240189	0.00022755571
0.034168262	0.079470202	0.0024298797	0.00022756017
0.0343652	0.081055611	0.002473393	0.00022755571
0.034562133	0.062209841	0.0018784595	0.00022755571
0.034759067	0.076066792	0.0023002126	0.00022756017
0.034956004	0.059259258	0.0017889997	0.00022755571
0.035152938	0.092237443	0.0027734656	0.00022755713
0.035349876	0.074817516	0.0022457952	0.00022755571
0.035546809	0.06987296	0.0020906427	0.00022755571
0.035743743	0.056159422	0.0016759427	0.00022755713
0.035940681	0.082511209	0.0024571836	0.00022755571
0.036137614	0.077264652	0.0022878593	0.00022755713
0.036334552	0.055950265	0.0016535512	0.00022755266
0.036531486	0.069664903	0.0020561859	0.00022755266
0.036728419	0.076719575	0.0022655034	0.00022755713
0.036925357	0.058260869	0.0017055061	0.00022755571
0.037122291	0.069504775	0.0020357671	0.00022755713
0.037319228	0.055459272	0.0016192594	0.00022755571
0.037516162	0.056827821	0.0016429513	0.00022755266
0.037713096	0.059982862	0.0017429445	0.00022755713
0.037910033	0.067291312	0.0019510196	0.00022755266
0.038106967	0.06700594	0.0019379881	0.00022755409
0.038303904	0.064135022	0.0018506084	0.00022755266
0.038500838	0.069051579	0.0019798959	0.00022755266
0.038697772	0.060330577	0.0017221902	0.00022755409
0.038894709	0.072019868	0.0020602222	0.00022755266
0.039091643	0.07030604	0.0020100498	0.00022755409
0.03928858	0.067213118	0.001912168	0.00022755266
0.039485514	0.056864336	0.0016097669	0.00022755266
0.039682448	0.066612512	0.0018871569	0.00022755409
0.039879385	0.053815261	0.0015140199	0.00022755266
0.040076319	0.068000004	0.0019116766	0.00022755409
0.040273257	0.060995184	0.0017169534	0.00022754962
0.04047019	0.062052507	0.0017384938	0.00022754962
0.040667124	0.069102459	0.0019365409	0.00022755409
0.040864062	0.063330725	0.0017602912	0.00022755266
0.041060995	0.069206841	0.0019187655	0.00022755409
0.041257933	0.071762867	0.001993885	0.00022754962
0.041454867	0.059922177	0.0016596662	0.00022755266
0.0416518	0.054474708	0.0015090305	0.00022755409
0.041848738	0.053435113	0.0014660289	0.00022754962
0.042045671	0.071482889	0.0019610226	0.00022754801
0.042242609	0.066159695	0.0018146188	0.00022754657
0.042439543	0.059225511	0.0016215646	0.00022754353
0.042636476	0.056348611	0.0015339376	0.00022754801
0.042833414	0.036144577	0.00098182936	0.00022754657
0.043030348	0.054518297	0.0014793503	0.00022754801
0.043227285	0.049483012	0.00133428	0.00022754353
0.043424219	0.047162861	0.0012707221	0.00022754353
0.043621153	0.059558824	0.00160511	0.00022754801
0.04381809	0.061583579	0.0016571701	0.00022754353
0.044015024	0.049743965	0.0013348005	0.00022754495
0.044211961	0.048550725	0.0012973284	0.00022754353
0.044408895	0.055395685	0.0014764271	0.00022754353
0.044605829	0.06465517	0.0017230444	0.00022754495
0.044802766	0.05451937	0.0014500871	0.00022754353
0.0449997	0.052105639	0.0013822211	0.00022754495
0.045196638	0.058657244	0.0015495637	0.00022754353
0.045393571	0.063120566	0.0016712437	0.00022754353
0.045590505	0.064470917	0.001696959	0.00022754495
0.045787442	0.051192146	0.0013467926	0.00022754048
0.045984376	0.05486111	0.0014363371	0.00022754191
0.046181314	0.058986817	0.0015450518	0.00022754353
0.046378247	0.0711326	0.0018590972	0.00022754048
0.046575181	0.060082871	0.0015693348	0.00022754191
0.046772119	0.05757368	0.0014983733	0.00022754353
0.046969052	0.051735874	0.0013406762	0.00022754495
0.04716599	0.065439671	0.0016990823	0.00022754048
0.047362924	0.051886793	0.0013379039	0.00022754048
0.047559857	0.063002683	0.0016210648	0.00022754495
0.047756795	0.050369374	0.0012963297	0.00022754048
0.047953729	0.054996647	0.0014149839	0.00022754495
0.048150666	0.059721302	0.0015274805	0.00022754048
0.0483476	0.059721302	0.0015290111	0.00022754048
0.048544534	0.053045187	0.0013478277	0.00022754191
0.048741471	0.059327621	0.0015131565	0.00022753744
0.048938405	0.050162867	0.0012704635	0.00022754191
0.049135342	0.052424639	0.0013321396	0.00022754048
0.049332276	0.050550874	0.0012771232	0.00022753744
0.04952921	0.056921087	0.0014374361	0.00022753887
0.049726147	0.061895553	0.0015591299	0.00022753744
0.049923081	0.063964531	0.0016000082	0.00022754191
0.050120018	0.04667519	0.0011707102	0.00022753744
0.050316952	0.047344849	0.0011865022	0.00022753744
0.050513886	0.052063491	0.0013019085	0.00022753887
0.050710823	0.043119848	0.0010757881	0.00022753744
0.050907757	0.044692736	0.0011039153	0.00022753887
0.051104695	0.049968768	0.0012384373	0.00022753744
0.051301628	0.04993758	0.0012382608	0.00022753744
0.051498562	0.059925094	0.0014870589	0.00022753887
0.0516955	0.044526901	0.0010982065	0.00022753744
0.051892433	0.047123622	0.0011569444	0.00022753887
0.052089371	0.046296295	0.0011398065	0.0002275344
0.052286305	0.045537341	0.0011130959	0.00022753744
0.052483238	0.046808511	0.0011449642	0.00022753583
0.052680176	0.041337386	0.0010090956	0.0002275344
0.052877109	0.053495441	0.001308762	0.00022753887
0.053074047	0.058468957	0.001424822	0.0002275344
0.053270981	0.045373134	0.0010983626	0.00022753744
0.053467914	0.051312648	0.0012433839	0.00022753887
0.053664852	0.05982906	0.0014675988	0.0002275344
0.053861786	0.06006192	0.0014829766	0.00022753583
0.054058723	0.053549189	0.0013263016	0.0002275344
0.054255657	0.050711192	0.0012515052	0.0002275344
0.054452591	0.052532833	0.0013027319	0.00022753583
0.054649528	0.051154085	0.0012677481	0.0002275344
0.054846462	0.053291537	0.0013241279	0.00022753583
0.055043399	0.04410838	0.0010971189	0.00022753136
0.055240333	0.042956412	0.0010701478	0.0002275344
0.055437267	0.045998741	0.0011444725	0.00022753583
0.055634204	0.056320399	0.0013988534	0.00022753136
0.055831138	0.055098165	0.0013769995	0.00022753279
0.056028076	0.042164885	0.0010477939	0.00022753136
0.056225009	0.053097345	0.0013249362	0.00022753136
0.056421943	0.042118698	0.0010542712	0.00022753279
0.05661888	0.042740416	0.0010613827	0.00022753136
0.056815814	0.037712131	0.00093572715	0.00022753279
0.057012752	0.046202533	0.0011509866	0.00022753136
0.057209685	0.038510103	0.00095705234	0.00022752832
0.057406619	0.044191919	0.0011002378	0.00022753279
0.057603557	0.044851549	0.0011176509	0.00022753136
0.05780049	0.053797469	0.0013430328	0.00022753279
0.057997428	0.05276382	0.0013128474	0.00022752832
0.058194362	0.046085857	0.0011470678	0.00022752832
0.058391295	0.044219837	0.0011015099	0.00022752974
0.058588233	0.045739349	0.0011341525	0.00022752832
0.058785167	0.045569621	0.0011356764	0.00022752974
0.058982104	0.04902577	0.001217511	0.00022752832
0.059179038	0.050251257	0.0012493532	0.00022752832
0.059375972	0.056639396	0.001409873	0.00022752974
0.059572909	0.045739349	0.0011341525	0.00022752528
0.059769843	0.04851922	0.0012079008	0.00022752974
0.05996678	0.047087979	0.0011608183	0.00022752528
0.060163714	0.052930057	0.0013182986	0.00022752528
0.060360648	0.043017458	0.001063884	0.00022752974
0.060557585	0.048215404	0.0011965708	0.00022752528
0.060754519	0.042937148	0.0010602237	0.0002275267
0.060951456	0.033707865	0.00083167542	0.00022752528
0.06114839	0.055382702	0.0013701514	0.00022752528
0.061345324	0.047322541	0.0011709494	0.0002275267
0.061542261	0.040993787	0.0010113617	0.00022752528
0.061739195	0.036691543	0.00090457685	0.0002275267
0.061936133	0.041537508	0.0010240254	0.00022752528
0.062133066	0.044554457	0.0010985789	0.00022752528
0.06233	0.041230768	0.0010129312	0.00022752528
0.062526934	0.043881334	0.0010798267	0.0002275251
0.062723875	0.031637717	0.00077771244	0.00022751919
0.062920809	0.043156598	0.0010611303	0.00022752528
0.063117743	0.03967762	0.00097805564	0.00022751919
0.063314676	0.042227663	0.0010347138	0.00022751919
0.06351161	0.050702505	0.0012432154	0.00022752814
0.063708551	0.045370936	0.0011136857	0.00022751919
0.063905485	0.047589615	0.0011735477	0.00022751919
0.064102419	0.03902439	0.0009528076	0.00022751919
0.064299352	0.037354562	0.000915799	0.00022752528
0.064496286	0.042098843	0.001030864	0.00022752205
0.064693227	0.037059538	0.00090323167	0.00022751919
0.064890161	0.032727271	0.00079676113	0.00022751919
0.065087095	0.048259009	0.0011836262	0.00022752528
0.065284029	0.040317655	0.00098666991	0.00022752528
0.065480962	0.041162226	0.001002466	0.00022752205
0.065677904	0.031287607	0.00075826596	0.00022752528
0.065874837	0.035692681	0.00086966879	0.00022751919
0.066071771	0.046357617	0.001127683	0.00022751919
0.066268705	0.03325272	0.00080822693	0.00022751919
0.066465639	0.047561709	0.0011574946	0.00022752205
0.06666258	0.044910181	0.0010895842	0.00022751919
0.066859514	0.038158692	0.00092952774	0.00022751919
0.067056447	0.042806182	0.0010343409	0.00022751919
0.067253381	0.048416018	0.0011732654	0.00022751919
0.067450315	0.041841004	0.0010138145	0.00022751596
0.067647256	0.041916169	0.0010176041	0.00022751919
0.06784419	0.050359711	0.001224309	0.00022751919
0.068041123	0.03846154	0.00092662399	0.00022751311
0.068238057	0.039715473	0.00095868384	0.00022751311
0.068434991	0.04040404	0.0009757519	0.00022752205
0.068631932	0.040189125	0.00096818892	0.00022751311
0.068828866	0.042464115	0.0010293856	0.00022751311
0.0690258	0.043834016	0.0010491261	0.00022751311
0.069222733	0.037190083	0.00089320261	0.00022751311
0.069419667	0.039007094	0.00093828456	0.00022751596
0.069616608	0.039859321	0.00095544982	0.00022751311
0.069813542	0.046388727	0.0011154767	0.00022751311
0.070010476	0.036513545	0.00087686104	0.00022751311
0.07020741	0.034258712	0.00082389673	0.00022751311
0.070404343	0.038705949	0.00092214812	0.00022752205
0.070601285	0.043199066	0.0010354376	0.00022751311
0.070798218	0.041255083	0.00098513137	0.00022751311
0.070995152	0.045161292	0.0010844913	0.00022751311
0.071192086	0.045534149	0.0010903117	0.00022751311
0.071389019	0.050632913	0.0012060617	0.00022751596
0.071585961	0.049303945	0.0011796224	0.00022750701
0.071782894	0.039306358	0.00093687139	0.00022751311
0.071979828	0.036564134	0.00087208994	0.00022751311
0.072176762	0.047262248	0.0011260025	0.00022751311
0.072373696	0.037822351	0.00089690601	0.00022751596
0.072570637	0.044057973	0.0010524292	0.00022751311
0.072767571	0.036384311	0.00085946795	0.00022750701
0.072964504	0.037615743	0.00089686993	0.00022750701
0.073161438	0.04202158	0.00099246216	0.00022751311
0.073358372	0.026887871	0.00063553063	0.00022750988
0.073555313	0.033410139	0.00079419266	0.00022750701
0.073752247	0.035048049	0.0008256897	0.00022751311
0.073949181	0.05308219	0.0012597876	0.00022750701
0.074146114	0.044142615	0.001042795	0.00022751311
0.074343048	0.04449515	0.001054434	0.00022750988
0.074539989	0.043157298	0.0010206756	0.00022750701
0.074736923	0.04527669	0.0010623189	0.00022750701
0.074933857	0.039840639	0.00094295177	0.00022750701
0.07513079	0.039977476	0.00094066688	0.00022750701
0.075327724	0.037725225	0.00088751799	0.0002275038
0.075524665	0.034929577	0.00082150585	0.00022750701
0.075721599	0.046770602	0.0010951315	0.00022750093
0.075918533	0.030968469	0.00072687032	0.00022750701
0.076115467	0.034695018	0.00081216468	0.00022750701
0.0763124	0.036850922	0.00086256833	0.00022750988
0.076509342	0.046718575	0.0010929896	0.00022750701
0.076706275	0.038312048	0.00089530903	0.00022750701
0.076903209	0.047085203	0.0011068387	0.00022750701
0.077100143	0.035812672	0.00083295081	0.00022750093
0.077297077	0.037139691	0.00086712831	0.0002275038
0.077494018	0.052836485	0.0012385795	0.00022750093
0.077690952	0.047278725	0.0011005631	0.00022750093
0.077887885	0.031197771	0.00072901242	0.00022750093
0.078084819	0.039760347	0.00092057203	0.00022750093
0.078281753	0.034672536	0.00080611429	0.0002275038
0.078478694	0.041827187	0.00097316131	0.00022750093
0.078675628	0.03167668	0.00073295907	0.00022750093
0.078872561	0.035832416	0.00083444372	0.00022750093
0.079069495	0.045231607	0.001048883	0.00022750093
0.079266429	0.046372067	0.0010752087	0.0002275038
0.07946337	0.044165757	0.0010229788	0.00022750093
0.079660304	0.040562466	0.00093505887	0.00022750093
0.079857238	0.040961225	0.0009497421	0.00022750093
0.080054171	0.032990806	0.00076007866	0.00022750093
0.080251105	0.039237056	0.00090804731	0.0002275038
0.080448046	0.037196767	0.0008564936	0.00022749485
0.08064498	0.036402568	0.00083552836	0.00022750093
0.080841914	0.035230353	0.00081369368	0.00022750093
0.081038848	0.037553649	0.0008625632	0.00022749485
0.081235781	0.037878789	0.00087451696	0.00022749772
0.081432723	0.034151547	0.00078195648	0.00022749485
0.081629656	0.036800001	0.00084210327	0.00022749485
0.08182659	0.036422066	0.00083619985	0.00022749485
0.082023524	0.035657264	0.00081553898	0.00022749485
0.082220457	0.04382683	0.0010063804	0.00022749772
0.082417399	0.039466668	0.00090466731	0.00022749485
0.082614332	0.04257584	0.00097521959	0.00022749485
0.082811266	0.034519386	0.00078804267	0.00022749485
0.0830082	0.030526316	0.00069317949	0.00022749485
0.083205134	0.03858351	0.00087999785	0.00022749163
0.083402075	0.032752246	0.00074648275	0.00022749485
0.083599009	0.032464076	0.00074235169	0.00022749485
0.083795942	0.030954879	0.00070195104	0.00022748877
0.083992876	0.037716083	0.00085642625	0.00022749485
0.08418981	0.028795812	0.00065194286	0.00022749772
0.084386751	0.029304029	0.00066277641	0.00022748877
0.084583685	0.031887088	0.00072224997	0.00022749485
0.084780619	0.037480477	0.00084874523	0.00022749485
0.084977552	0.028705636	0.00064910157	0.00022748877
0.085174486	0.032057911	0.0007221016	0.00022749163
0.085371427	0.034321371	0.00077582616	0.00022748877
0.085568361	0.032424085	0.00072916114	0.00022748877
0.085765295	0.033436213	0.00075105613	0.00022748877
0.085962228	0.030239834	0.00068261236	0.00022748877
0.086159162	0.036045313	0.00081128121	0.00022748555
0.086356103	0.034148827	0.00076398434	0.00022748877
0.086553037	0.037987679	0.00085412705	0.00022748877
0.086749971	0.025901472	0.00057811179	0.00022748877
0.086946905	0.042695474	0.00096175884	0.00022748268
0.087143838	0.031424228	0.00070116529	0.00022749163
0.08734078	0.027027028	0.00060381339	0.00022748877
0.087537713	0.032928064	0.00073470565	0.00022748268
0.087734647	0.03743045	0.00083524454	0.00022748877
0.087931581	0.036585364	0.00081787596	0.00022748877
0.088128515	0.033149172	0.0007365871	0.00022748555
0.088325456	0.035750251	0.00079610234	0.00022748268
0.08852239	0.035443038	0.00079135789	0.00022748268
0.088719323	0.030953569	0.0006858324	0.00022748268
0.088916257	0.029058116	0.00064396404	0.00022748268
0.089113191	0.04045954	0.00089804351	0.00022748555
0.089310132	0.025474526	0.00056321081	0.00022748268
0.089507066	0.036354583	0.0008051499	0.00022748268
0.089703999	0.025793651	0.0005677719	0.00022748268
0.089900933	0.032499999	0.00072007586	0.00022748268
0.090097867	0.030004919	0.00065906491	0.00022747947
0.090294808	0.031904288	0.00070551905	0.00022748268
0.090491742	0.028613715	0.00062905462	0.00022748268
0.090688676	0.030647554	0.00067568535	0.00022748268
0.090885609	0.036031589	0.00079444202	0.0002274766
0.091082543	0.033481043	0.00073681213	0.00022748268
0.091279477	0.032956224	0.00072496483	0.00022748555
0.091476418	0.030496802	0.00066981703	0.0002274766
0.091673352	0.036621094	0.00080298819	0.00022748268
0.091870286	0.034855179	0.00076669647	0.0002274766
0.092067219	0.028403526	0.00062251248	0.0002274766
0.092264153	0.033592988	0.00073506887	0.00022747947
0.092461094	0.034146342	0.00074785674	0.0002274766
0.092658028	0.025427872	0.00055594608	0.0002274766
0.092854962	0.035800677	0.00078128261	0.0002274766
0.093051895	0.03286612	0.00071676116	0.0002274766
0.093248829	0.035939775	0.00078613282	0.00022747337
0.09344577	0.032382794	0.00070628308	0.0002274766
0.093642704	0.035471331	0.00077524199	0.00022747052
0.093839638	0.036162008	0.00078793365	0.0002274766
0.094036572	0.034151033	0.00074297807	0.0002274766
0.094233505	0.02938343	0.00063904136	0.00022747947
0.094430447	0.029214559	0.000633366	0.00022747052
0.09462738	0.028502416	0.00062091975	0.00022747052
0.094824314	0.033476807	0.00072596566	0.00022747052
0.095021248	0.037817139	0.00082154974	0.00022747052
0.095218182	0.032841504	0.00071008224	0.00022747337
0.095415123	0.032011468	0.0006938533	0.00022747052
0.095612057	0.034778465	0.00075335376	0.00022747052
0.09580899	0.03233476	0.00069929287	0.00022747052
0.096005924	0.035885166	0.00077890145	0.00022747052
0.096202858	0.038880985	0.00084077421	0.00022747337
0.096399799	0.038770687	0.00083707209	0.00022747052
0.096596733	0.031984948	0.00068812526	0.00022746444
0.096793666	0.037807185	0.00081577111	0.00022747052
0.0969906	0.035444234	0.00076500175	0.00022746444
0.097187534	0.032987747	0.00071026053	0.00022747337
0.097384475	0.034482758	0.00074376451	0.00022746444
0.097581409	0.028665414	0.00061558932	0.00022747052
0.097778343	0.033969287	0.00072762696	0.00022746444
0.097975276	0.036235295	0.00078031549	0.00022746444
0.09817221	0.035914179	0.00076943671	0.00022746729
0.098369151	0.029702971	0.00063881895	0.00022746444
0.098566085	0.030569708	0.00065275125	0.00022746444
0.098763019	0.028103044	0.00060309237	0.00022746444
0.098959953	0.036077704	0.00077071274	0.00022746444
0.099156886	0.036027715	0.00076898298	0.00022746121
0.099353828	0.033613447	0.00072039739	0.00022746444
0.099550761	0.032992564	0.00070620101	0.00022745834
0.099747695	0.034117106	0.00072722079	0.00022745834
0.099944629	0.035152636	0.0007504067	0.00022745834
0.10014156	0.030804597	0.00065423833	0.00022746121
0.1003385	0.023996308	0.00050946436	0.00022745834
0.10053544	0.03348624	0.00071161683	0.00022746444
0.10073237	0.030204462	0.00064560398	0.00022745834
0.1009293	0.0284143	0.00060286262	0.00022746444
0.10112624	0.034545455	0.00073065999	0.00022746121
0.10132318	0.034007352	0.00072331133	0.00022746444
0.10152011	0.03362108	0.00071102096	0.00022745834
0.10171705	0.035665296	0.00075702817	0.00022745834
0.10191398	0.031449407	0.00066540862	0.00022745834
0.10211091	0.030607583	0.0006484125	0.00022746121
0.10230786	0.032742154	0.00069215783	0.00022745834
0.10250479	0.041139241	0.00086881075	0.00022745226
0.10270172	0.036936939	0.00077861926	0.00022745226
0.10289866	0.037813213	0.00080122426	0.00022745226
0.10309559	0.058212996	0.0012311965	0.00022745512
0.10329253	0.046690844	0.00098863628	0.00022745226
0.10348947	0.056502242	0.0011911786	0.00022745834
0.1036864	0.050000001	0.0010554257	0.00022745226
0.10388333	0.061013907	0.0012871583	0.00022745226
0.10408027	0.05982906	0.0012635844	0.00022746121
0.10427721	0.05515695	0.0011628185	0.00022745226
0.10447414	0.05877075	0.001239171	0.00022745226
0.10467108	0.051693406	0.001085799	0.00022745226
0.10486801	0.053643271	0.0011284312	0.00022745226
0.10506494	0.05277162	0.001106146	0.00022745512
0.10526188	0.058351893	0.0012260176	0.00022745226
0.10545882	0.05013429	0.0010545768	0.00022744617
0.10565575	0.043863535	0.00091806013	0.00022745226
0.10585269	0.040408526	0.00084576273	0.00022745226
0.10604962	0.048586573	0.0010161018	0.00022745512
0.10624656	0.044247787	0.00092536252	0.00022744617
0.10644349	0.039717562	0.000829064	0.00022744617
0.10664043	0.040951122	0.00085408066	0.00022745226
0.10683736	0.049535602	0.0010364923	0.00022744617
0.1070343	0.04225352	0.00088095979	0.00022744904
0.10723124	0.040664624	0.00084552797	0.00022744617
0.10742817	0.048458152	0.0010118217	0.00022744617
0.1076251	0.033405639	0.00069058937	0.00022744617
0.10782204	0.043956045	0.00091678061	0.00022744617
0.10801897	0.043288149	0.00090070296	0.00022744904
0.10821591	0.042888403	0.00089235179	0.00022744617
0.10841285	0.043156058	0.00089612056	0.00022744617
0.10860978	0.042405885	0.00087696325	0.00022744009
0.10880671	0.0452151	0.00094257959	0.00022744009
0.10900365	0.047906775	0.00099024386	0.00022744904
0.10920059	0.039775185	0.00082221528	0.00022744009
0.10939752	0.047722343	0.00098935585	0.00022744009
0.10959446	0.045356371	0.00093786401	0.00022744009
0.10979139	0.054735012	0.0011357248	0.00022744009
0.10998832	0.048006859	0.00098895573	0.00022744296
0.11018527	0.05045278	0.0010427405	0.00022744009
0.1103822	0.045669969	0.00094317918	0.00022744009
0.11057913	0.047639485	0.00098228897	0.00022743401
0.11077607	0.050344232	0.0010393767	0.00022744009
0.110973	0.051959112	0.0010675358	0.00022743687
0.11116994	0.051731508	0.0010650776	0.00022743401
0.11136688	0.06423983	0.0013248459	0.00022743401
0.11156381	0.063802637	0.0013111077	0.00022743401
0.11176074	0.070512824	0.0014529151	0.00022743401
0.11195768	0.08481764	0.0017418928	0.00022744296
0.11215462	0.073535696	0.0015156642	0.00022743401
0.11235155	0.097198643	0.0019976667	0.00022743401
0.11254849	0.12368087	0.0025363362	0.00022743401
0.11274542	0.19940728	0.0040978575	0.00022743401
0.11294235	0.35044548	0.0072125793	0.00022743687
0.11313929	0.6665256	0.013704433	0.00022743401
0.11333623	1.1565254	0.023682518	0.00022743401
0.11353316	1.9932346	0.040974658	0.00022742792
0.1137301	3.4079833	0.069840148	0.00022743401
0.11392703	5.1330543	0.10497494	0.00022743079
0.11412397	7.5636287	0.1549799	0.00022742792
0.1143209	9.9579659	0.20412977	0.00022742792
0.11451784	12.356216	0.252765	0.00022742792
0.11471477	14.347041	0.29386654	0.00022742792
0.11491171	15.750622	0.32054389	0.00022743079
0.11510865	16.116861	0.32923368	0.00022742792
0.11530558	16.189009	0.33029896	0.00022742792
0.11550251	15.461732	0.31618822	0.00022742792
0.11569945	14.384169	0.29281092	0.00022742792
0.11589638	13.094332	0.26633254	0.00022743079
0.11609332	11.93675	0.24268299	0.00022742792
0.11629026	10.909768	0.22193524	0.00022742792
0.11648719	9.6105833	0.19537552	0.00022742184
0.11668412	8.2947979	0.16851299	0.00022742184
0.11688106	7.1309032	0.14509991	0.00022742471
0.117078	5.9202304	0.12001055	0.00022742184
0.11727493	4.9521079	0.10015419	0.00022742184
0.11747187	3.8133442	0.077119097	0.00022742184
0.1176688	2.8651087	0.057987683	0.00022742184
0.11786573	1.9822607	0.040240768	0.00022742471
0.11806267	1.2613312	0.025474157	0.00022742184
0.11825961	0.82548136	0.01669915	0.00022742184
0.11845654	0.5324412	0.010715722	0.00022742184
0.11865348	0.38339439	0.0077291955	0.00022742184
0.11885041	0.30397379	0.006147563	0.00022741863
0.11904735	0.2651822	0.005330917	0.00022741576
0.11924428	0.22050448	0.0044429214	0.00022741576
0.11944122	0.18001617	0.0036163107	0.00022741576
0.11963815	0.16206336	0.0032616428	0.00022741576
0.11983509	0.14945762	0.002991433	0.00022741863
0.12003203	0.14943457	0.0029984773	0.00022741576
0.12022896	0.13815522	0.0027804135	0.00022741576
0.12042589	0.10890688	0.0021869023	0.00022741576
0.12062283	0.099398799	0.0019854733	0.00022741576
0.12081976	0.11552346	0.0023091193	0.00022741863
0.1210167	0.094400004	0.0018835911	0.00022741576
0.12121364	0.096122779	0.0019270856	0.00022740968
0.12141057	0.094211578	0.0018775809	0.00022740968
0.1216075	0.088247091	0.0017630913	0.00022741576
0.12180444	0.075636946	0.0015048154	0.00022741254
0.12200138	0.075328819	0.0014993846	0.00022740968
0.12219831	0.071485624	0.0014240982	0.00022741576
0.12239525	0.061386138	0.0012174646	0.00022741576
0.12259218	0.059928086	0.001193441	0.00022740968
0.12278911	0.06963788	0.0013845868	0.00022741254
0.12298606	0.066322476	0.0013171425	0.00022740968
0.12318299	0.055423595	0.0010984596	0.00022740968
0.12337992	0.052569635	0.0010367921	0.00022740968
0.12357686	0.056723524	0.0011252251	0.00022740968
0.12377379	0.049387593	0.00097756414	0.00022740646
0.12397073	0.053691275	0.0010623352	0.00022740968
0.12416767	0.062843673	0.0012409342	0.00022740359
0.1243646	0.06465517	0.0012753308	0.00022740359
0.12456153	0.062302839	0.0012329557	0.00022740359
0.12475847	0.054858934	0.0010818248	0.00022740646
0.12495541	0.061393153	0.0012135928	0.00022739463
0.12515233	0.050039094	0.0009850848	0.00022740323
0.12534928	0.050603349	0.00099431409	0.00022739751
0.12554622	0.06296441	0.0012411092	0.00022739751
0.12574315	0.0559658	0.0010991653	0.00022739751
0.12594008	0.059007425	0.0011620525	0.00022739751
0.12613702	0.055188496	0.0010836681	0.00022740968
0.12633395	0.051461987	0.0010119877	0.00022740968
0.12653089	0.044926412	0.00087990233	0.00022739751
0.12672782	0.04095827	0.00080052932	0.00022739751
0.12692475	0.05568536	0.0010946338	0.00022739751
0.12712169	0.047856048	0.00093225972	0.00022740323
0.12731864	0.047433905	0.00093120348	0.00022739751
0.12751557	0.052327819	0.0010224008	0.00022739751
0.1277125	0.042692307	0.00083350879	0.00022739751
0.12790944	0.045963693	0.00089925667	0.00022739751
0.12810637	0.049980778	0.00097566913	0.00022739751
0.1283033	0.046761211	0.00091146224	0.00022739751
0.12850024	0.049060944	0.00095639745	0.00022739751
0.12869717	0.049330782	0.00096006668	0.00022738535
0.12889411	0.042643104	0.00083152257	0.00022739751
0.12909104	0.037656903	0.00073047174	0.00022740323
0.12928799	0.033742331	0.00065674359	0.00022739751
0.12948492	0.041303523	0.00080020406	0.00022739751
0.12968186	0.034008406	0.00066091761	0.00022738535
0.12987879	0.039223153	0.00076161465	0.00022738535
0.13007572	0.037835792	0.00073196559	0.00022738535
0.13027266	0.039573822	0.00076795631	0.00022738535
0.13046959	0.03930461	0.00076041644	0.00022738535
0.13066652	0.036784224	0.00071244611	0.00022738535
0.13086346	0.036672968	0.00070921588	0.00022739751
0.13106039	0.044261064	0.00085324427	0.00022740323
0.13125734	0.039163496	0.00075973279	0.00022738535
0.13145427	0.037190083	0.00071670715	0.00022738535
0.13165121	0.038418081	0.00074171129	0.00022738535
0.13184814	0.033720493	0.00064895122	0.00022738535
0.13204508	0.039009754	0.00075180444	0.00022738535
0.13224201	0.038519636	0.00074407569	0.00022738535
0.13243894	0.042227205	0.00081244553	0.00022738535
0.13263588	0.036512669	0.0007004916	0.00022738535
0.13283281	0.033283472	0.0006396501	0.00022738535
0.13302974	0.038173653	0.00073457189	0.00022739106
0.13322669	0.035447761	0.00068056001	0.00022738535
0.13342363	0.041512232	0.00079493836	0.00022738535
0.13362056	0.043817304	0.00084013818	0.00022738535
0.13381749	0.029817369	0.00057142344	0.00022737318
0.13401443	0.034970239	0.00067056983	0.00022737318
0.13421136	0.038961038	0.00074685173	0.00022738535
0.1344083	0.042004421	0.00080226804	0.00022737318
0.13460523	0.03917221	0.00074927451	0.00022737318
0.13480216	0.039776951	0.00076327712	0.00022737318
0.1349991	0.045925926	0.00088020589	0.0002273789
0.13519605	0.034294054	0.00065121258	0.00022737318
0.13539298	0.037023325	0.0007085129	0.00022737318
0.13558991	0.036630038	0.00069718156	0.00022737318
0.13578685	0.037118707	0.00070790609	0.00022737318
0.13598378	0.03112413	0.00059200369	0.00022737318
0.13618071	0.029455081	0.00056139537	0.00022737318
0.13637765	0.032222629	0.00061287358	0.00022737318
0.13657458	0.034344174	0.00065241661	0.00022737318
0.13677152	0.033527698	0.00063598988	0.00022737318
0.13696845	0.031976745	0.00060587109	0.00022737318
0.13716538	0.035414387	0.00067236577	0.0002273789
0.13736233	0.032199048	0.00061156019	0.00022737318
0.13755926	0.036127169	0.00068266527	0.00022737318
0.1377562	0.032774944	0.00062153372	0.00022737318
0.13795313	0.037373003	0.00070802361	0.00022736102
0.13815007	0.034308415	0.00064793712	0.00022736102
0.138347	0.036258157	0.00068645139	0.00022737318
0.13854393	0.038129497	0.00071955385	0.00022737318
0.13874087	0.037818182	0.00071761839	0.00022736102
0.1389378	0.036823105	0.00069572846	0.00022736102
0.13913473	0.033321392	0.00062670803	0.00022736673
0.13933168	0.034148093	0.00064376125	0.00022737318
0.13952862	0.038061041	0.00071761676	0.00022737318
0.13972555	0.034883723	0.00066146738	0.00022736102
0.13992248	0.036707055	0.00068957562	0.00022736102
0.14011942	0.035138041	0.00066179148	0.00022736102
0.14031635	0.036480688	0.00068631233	0.00022737318
0.14051329	0.026757047	0.00050155586	0.00022736102
0.14071022	0.039827771	0.00075072551	0.00022736102
0.14090715	0.034372784	0.0006434028	0.00022736102
0.14110409	0.032845411	0.00061733724	0.00022736673
0.14130104	0.041815583	0.00078687165	0.00022736102
0.14149797	0.031892274	0.00059689092	0.00022736102
0.1416949	0.031571478	0.0005911591	0.00022734885
0.14189184	0.037809186	0.00070727564	0.00022736102
0.14208877	0.037142858	0.00069841498	0.00022736102
0.1422857	0.033321518	0.00062356243	0.00022736102
0.14248264	0.042471044	0.00079182955	0.00022736102
0.14267957	0.039716311	0.00074444746	0.00022736102
0.14287651	0.03831283	0.00071487552	0.00022736102
0.14307344	0.044585988	0.00083509943	0.00022735457
0.14327039	0.037596628	0.00070113328	0.00022736102
0.14346732	0.031315975	0.00058384723	0.00022734885
0.14366426	0.035100035	0.00065408729	0.00022734885
0.14386119	0.034749035	0.00064750668	0.00022736102
0.14405812	0.036077056	0.00067151338	0.00022734885
0.14425506	0.040111616	0.00074570975	0.00022734885
0.14445199	0.037881445	0.0007057414	0.00022734885
0.14464892	0.042471044	0.000792048	0.00022734885
0.14484586	0.045881126	0.00085194671	0.00022734885
0.14504279	0.030683404	0.00056955771	0.00022735457
0.14523974	0.037318591	0.00069030822	0.00022734885
0.14543667	0.040336724	0.00075073284	0.00022733668
0.14563361	0.036098577	0.0006689154	0.00022734885
0.14583054	0.029892249	0.00055323582	0.00022734885
0.14602748	0.036319613	0.00067139335	0.00022734885
0.14622441	0.033921771	0.00062746136	0.00022733668
0.14642134	0.037318591	0.00069000921	0.00022734885
0.14661828	0.032024793	0.00059075921	0.00022733668
0.14681521	0.029462738	0.00054500601	0.00022733668
0.14701214	0.033804759	0.00062441442	0.0002273424
0.14720909	0.03065794	0.00056561205	0.00022733668
0.14740603	0.025853153	0.00047652592	0.00022733668
0.14760296	0.035081744	0.00064428186	0.00022733668
0.14779989	0.031002412	0.00057193841	0.00022733668
0.14799683	0.03065794	0.0005656844	0.00022733668
0.14819376	0.035370879	0.00065220211	0.00022733668
0.1483907	0.031496063	0.0005789916	0.00022733668
0.14858763	0.031313818	0.00057417911	0.00022733668
0.14878456	0.030573687	0.00056313782	0.00022733668
0.1489815	0.024745762	0.00045229337	0.0002273424
0.14917845	0.03407155	0.00062548381	0.00022733668
0.14937538	0.033083219	0.00060759793	0.00022733668
0.14957231	0.031154757	0.00056994567	0.00022733668
0.14976925	0.033904109	0.00062416069	0.00022733668
0.14996618	0.033029996	0.00060319633	0.00022733668
0.15016311	0.034237288	0.00062696479	0.00022732452
0.15036005	0.036722202	0.00067382492	0.00022732452
0.15055698	0.033355795	0.00060895336	0.00022733668
0.15075392	0.030591434	0.00056046207	0.00022733668
0.15095085	0.033210333	0.00060453673	0.00022733024
0.1511478	0.025934659	0.00047237828	0.00022732452
0.15134473	0.026039906	0.00047525699	0.00022733668
0.15154167	0.032874875	0.00059857318	0.00022732452
0.1517386	0.026369167	0.00048164179	0.00022732452
0.15193553	0.029135969	0.00053006696	0.00022732452
0.15213247	0.035966385	0.00065596524	0.00022733668
0.1523294	0.037210863	0.00067823409	0.00022732452
0.15252633	0.032655783	0.00059266121	0.00022732452
0.15272327	0.032452326	0.00059010845	0.00022732452
0.1529202	0.027694361	0.00050275994	0.00022733024
0.15311715	0.035546612	0.00064751011	0.00022732452
0.15331408	0.02891326	0.00052393036	0.00022732452
0.15351102	0.027925532	0.00050606875	0.00022732452
0.15370795	0.024958402	0.00045208196	0.00022731235
0.15390489	0.034941763	0.00063360628	0.00022732452
0.15410182	0.032418128	0.0005862026	0.00022732452
0.15429875	0.029235881	0.00052958971	0.00022732452
0.15449569	0.028220452	0.0005109699	0.00022731235
0.15469262	0.032097947	0.00058084249	0.00022731235
0.15488955	0.02997365	0.00054088095	0.00022731809
0.1550865	0.031620555	0.00057091133	0.00022732452
0.15528344	0.028495692	0.00051534141	0.00022731235
0.15548037	0.029148724	0.00052722311	0.00022731235
0.1556773	0.028852459	0.00051913678	0.00022731235
0.15587424	0.03294893	0.00059464248	0.00022731235
0.15607117	0.03002611	0.0005391243	0.00022731235
0.1562681	0.033300363	0.00060110475	0.00022731235
0.15646504	0.024310118	0.00043738092	0.00022732452
0.15666197	0.026814912	0.00048180134	0.00022731235
0.15685891	0.027459955	0.00049318105	0.00022731809
0.15705585	0.024796085	0.00044476835	0.00022731235
0.15725279	0.024557957	0.00044068688	0.00022731235
0.15744972	0.031534459	0.00056530896	0.00022731235
0.15764666	0.029947916	0.00053714804	0.00022731235
0.15784359	0.03180328	0.00057255372	0.00022731235
0.15804052	0.026913099	0.00048113812	0.00022731235
0.15823746	0.025415445	0.00045551875	0.00022731235
0.15843439	0.028010303	0.00049930956	0.00022731235
0.15863132	0.028210117	0.00050473004	0.00022730019
0.15882826	0.035179153	0.00063125161	0.00022731809
0.15902521	0.029411765	0.00052516337	0.00022730019
0.15922214	0.031422094	0.00056216883	0.00022730019
0.15941907	0.032713279	0.00058215781	0.00022731235
0.15961601	0.027516996	0.00049156783	0.00022730019
0.15981294	0.03090792	0.00055123417	0.00022730019
0.16000988	0.030264005	0.0005400377	0.00022730019
0.16020681	0.032850243	0.00058633124	0.00022730019
0.16040374	0.033344019	0.00059365673	0.00022730019
0.16060068	0.029013539	0.00051701115	0.00022730019
0.16079761	0.027432216	0.00048669332	0.00022730592
0.16099456	0.028708134	0.00050956977	0.00022730019
0.16119149	0.032507241	0.00057981344	0.00022730019
0.16138843	0.026223218	0.00046537883	0.00022730019
0.16158536	0.031720601	0.00056414021	0.00022730019
0.16178229	0.036224976	0.00064215768	0.00022728802
0.16197923	0.03350351	0.00059494202	0.00022728802
0.16217616	0.037190083	0.00065919769	0.00022728802
0.1623731	0.029290035	0.00051873561	0.00022728802
0.16257003	0.039669946	0.00070284662	0.00022728802
0.16276696	0.039390087	0.00069813384	0.00022730592
0.16296391	0.038437102	0.00068125728	0.00022728802
0.16316085	0.031319201	0.00055375096	0.00022730019
0.16335778	0.027839292	0.00049183768	0.00022728802
0.16355471	0.025527891	0.00045010669	0.00022728802
0.16375165	0.028082633	0.00050137931	0.00022728802
0.16394858	0.034009155	0.00061191042	0.00022728802
0.16414551	0.03036239	0.00054497406	0.00022728802
0.16434245	0.026437541	0.00047744208	0.00022728802
0.16453938	0.028257979	0.00051170232	0.00022728802
0.16473632	0.031740729	0.00057663379	0.00022729376
0.16493326	0.035040431	0.00063947792	0.00022728802
0.1651302	0.032539416	0.00059223082	0.00022727586
0.16532713	0.034541722	0.00063465349	0.00022728802
0.16552407	0.035883546	0.00065685745	0.00022727586
0.165721	0.028135594	0.00051421829	0.00022728802
0.16591793	0.030895984	0.00056871091	0.00022727586
0.16611487	0.030510798	0.00056125742	0.00022727586
0.1663118	0.033333335	0.00061751925	0.00022728802
0.16650873	0.036782399	0.00067775877	0.00022728802
0.16670567	0.041336548	0.00076311454	0.00022728159
0.16690262	0.02952414	0.00054655748	0.00022727586
0.16709955	0.035527691	0.00065927207	0.00022727586
0.16729648	0.034058988	0.00063433818	0.00022727586
0.16749342	0.026810585	0.00049676851	0.00022727586
0.16769035	0.029730676	0.00055214827	0.00022727586
0.16788729	0.034251414	0.00063999748	0.00022727586
0.16808422	0.038247567	0.00070930074	0.00022727586
0.16828115	0.030818278	0.00057625241	0.00022727586
0.16847809	0.028099755	0.00052284397	0.00022726369
0.16867502	0.032951288	0.000619361	0.00022728159
0.16887197	0.036183044	0.00067773153	0.00022727586
0.1690689	0.02789548	0.00052061363	0.00022726369
0.16926584	0.029850746	0.00055857748	0.00022727586
0.16946277	0.026353277	0.00049357896	0.00022727586
0.1696597	0.026609134	0.0005006924	0.00022726369
0.16985664	0.032775205	0.00061440247	0.00022726369
0.17005357	0.03215434	0.00060358422	0.00022727586
0.17025051	0.038447719	0.00072424568	0.00022726369
0.17044744	0.036572248	0.00068782631	0.00022726369
0.17064437	0.032072071	0.00060450245	0.00022726943
0.17084132	0.026277898	0.00049457065	0.00022727586
0.17103826	0.024772312	0.00046838407	0.00022726369
0.17123519	0.024972856	0.00047081648	0.00022726369
0.17143212	0.019805545	0.00037184352	0.00022726369
0.17162906	0.024610931	0.00046463124	0.00022726369
0.17182599	0.025261639	0.00047614277	0.00022726369
0.17202292	0.027614139	0.00052546995	0.00022726369
0.17221986	0.025045373	0.00047357657	0.00022726369
0.17241679	0.026613196	0.00050454837	0.00022726369
0.17261373	0.033175357	0.00062959897	0.00022725726
0.17281067	0.021477977	0.00040554671	0.00022726369
0.17300761	0.021276595	0.00040356754	0.00022726369
0.17320454	0.022959184	0.00043432263	0.00022725153
0.17340147	0.026587889	0.00050676562	0.00022725153
0.17359841	0.029856248	0.0005694094	0.00022725153
0.17379534	0.022769004	0.00043242343	0.00022726369
0.17399228	0.029702971	0.00056476763	0.00022726369
0.17418921	0.028225806	0.00053634605	0.00022725153
0.17438614	0.030145144	0.00057787343	0.00022725153
0.17458308	0.030235989	0.00057663675	0.00022725726
0.17478003	0.032580525	0.00062311394	0.00022725153
0.17497696	0.039926063	0.0007637167	0.00022725153
0.17517389	0.032696545	0.0006228034	0.00022725153
0.17537083	0.033345822	0.00064103835	0.00022723936
0.17556776	0.032865584	0.00062755967	0.00022723936
0.17576469	0.022354694	0.0004276027	0.00022723936
0.17596163	0.031016443	0.00059528224	0.00022725153
0.17615856	0.024489796	0.00046736875	0.00022725153
0.1763555	0.030145144	0.00057698047	0.00022725153
0.17655243	0.023756497	0.00045363366	0.00022724509
0.17674938	0.028549962	0.00054893404	0.00022723936
0.17694631	0.028496439	0.00054767978	0.00022723936
0.17714325	0.024317246	0.00046623711	0.00022725153
0.17734018	0.025910627	0.00049811916	0.00022723936
0.17753711	0.025660098	0.00049112085	0.00022723936
0.17773405	0.025169047	0.00048371241	0.00022723936
0.17793098	0.025283018	0.00048700217	0.00022723936
0.17812791	0.029643526	0.00057012914	0.00022723936
0.17832485	0.032719068	0.00063047011	0.00022723936
0.17852178	0.026345503	0.00050711678	0.00022724509
0.17871873	0.028312571	0.0005459282	0.00022723936
0.17891566	0.021820918	0.00041928198	0.00022723936
0.1791126	0.020778239	0.00039930371	0.00022722721
0.17930953	0.021895055	0.00042116537	0.00022723936
0.17950647	0.022365429	0.00043132229	0.00022723936
0.1797034	0.021550095	0.00041488727	0.00022723936
0.17990033	0.023764618	0.00045749702	0.00022723936
0.18009727	0.018631179	0.00035887433	0.00022722721
0.1802942	0.024233244	0.00046724288	0.00022722721
0.18049113	0.025641026	0.00049715838	0.00022723294
0.18068808	0.017809777	0.00034272746	0.00022722721
0.18088502	0.021220159	0.00040904881	0.00022722721
0.18108195	0.020960366	0.00040524962	0.00022722721
0.18127888	0.0231851	0.00044788516	0.00022722721
0.18147582	0.026335878	0.00051043381	0.00022722721
0.18167275	0.023899848	0.00046093433	0.00022722721
0.18186969	0.016475096	0.00031859631	0.00022722721
0.18206662	0.027223926	0.00052878016	0.00022722721
0.18226355	0.024224073	0.00046755801	0.00022721505
0.18246049	0.036823936	0.00071726332	0.00022723294
0.18265744	0.026345933	0.00050996238	0.00022721505
0.18285437	0.029208301	0.00056763244	0.00022722721
0.1830513	0.022701038	0.00044003359	0.00022722721
0.18324824	0.029333333	0.00056734896	0.00022721505
0.18344517	0.03189854	0.0006203106	0.00022721505
0.1836421	0.033742331	0.00065571227	0.00022721505
0.18383904	0.027692307	0.00053803646	0.00022721505
0.18403597	0.029976942	0.00058273773	0.00022721505
0.18423291	0.029626779	0.00057667587	0.00022721505
0.18442984	0.024409143	0.00047635907	0.00022722078
0.18462679	0.032975461	0.0006411004	0.00022721505
0.18482372	0.018897031	0.00036689686	0.00022721505
0.18502066	0.028439661	0.0005530389	0.00022721505
0.18521759	0.019721577	0.00038316604	0.00022721505
0.18541452	0.028659953	0.00055947789	0.00022721505
0.18561146	0.023910528	0.00046522799	0.00022721505
0.18580839	0.02390131	0.00046446564	0.00022721505
0.18600532	0.026713124	0.00052110781	0.00022720288
0.18620226	0.031819947	0.00062235526	0.00022721505
0.18639919	0.025948877	0.00050636946	0.00022722078
0.18659614	0.026744187	0.00052212871	0.00022720288
0.18679307	0.028471138	0.00055798411	0.00022720288
0.18699001	0.033243138	0.00064919057	0.00022720288
0.18718694	0.028393621	0.00055549468	0.00022720288
0.18738388	0.025729647	0.00050030497	0.00022720288
0.18758081	0.025892507	0.00050881109	0.00022721505
0.18777774	0.0279829	0.00054738758	0.00022720288
0.18797468	0.017912773	0.00034968517	0.00022720288
0.18817161	0.030397506	0.00059574173	0.00022719071
0.18836854	0.031733748	0.00062020181	0.00022720861
0.18856549	0.025963807	0.00051043741	0.00022719071
0.18876243	0.032308292	0.00063304882	0.00022720288
0.18895936	0.026120858	0.00051129662	0.00022720288
0.18915629	0.022665104	0.00044358111	0.00022719071
0.18935323	0.023037875	0.00045118688	0.00022719071
0.18955016	0.023930954	0.00046941597	0.00022720288
0.1897471	0.032258064	0.00063148001	0.00022719071
0.18994403	0.031298906	0.0006149321	0.00022720288
0.19014096	0.03308389	0.00065203558	0.00022719071
0.1903379	0.026080187	0.00051033404	0.00022719646
0.19053484	0.025994485	0.00051134248	0.00022719071
0.19073178	0.022975078	0.00044908011	0.00022719071
0.19092871	0.027143981	0.00053410983	0.00022719071
0.19112565	0.019367589	0.00038068788	0.00022719071
0.19132258	0.024162119	0.00047259105	0.00022719071
0.19151951	0.022449784	0.00044128011	0.00022719071
0.19171645	0.02238806	0.00043932331	0.00022719071
0.19191338	0.025206774	0.00049556023	0.00022717856
0.19211031	0.025098039	0.00049260171	0.00022719071
0.19230725	0.026305458	0.00051672698	0.00022719646
0.1925042	0.019452164	0.00038334783	0.00022719071
0.19270113	0.021636507	0.00042530484	0.00022719071
0.19289806	0.029539188	0.00058179226	0.00022719071
0.193095	0.025068548	0.00049197802	0.00022717856
0.19329193	0.027788805	0.00054901879	0.00022719071
0.19348887	0.028481012	0.00056162936	0.00022717856
0.1936858	0.022021234	0.00043243196	0.00022717856
0.19388273	0.023677979	0.00046613219	0.00022717856
0.19407967	0.025712024	0.00050729205	0.00022717856
0.1942766	0.021921083	0.00043284727	0.0002271843
0.19447355	0.020344287	0.0003978415	0.00022717856
0.19467048	0.022592152	0.00044548503	0.00022717856
0.19486742	0.023734177	0.00046779285	0.0002271664
0.19506435	0.02701629	0.00053427787	0.0002271664
0.19526128	0.033905067	0.00067282154	0.0002271664
0.19545822	0.026243635	0.00051525643	0.0002271664
0.19565515	0.025630757	0.00050849671	0.0002271664
0.19585209	0.025396826	0.00050092657	0.0002271664
0.19604902	0.024544735	0.00048373404	0.0002271664
0.19624595	0.02310757	0.0004570508	0.00022717213
0.1964429	0.023246652	0.00045720089	0.00022717856
0.19663984	0.02764423	0.00054882746	0.0002271664
0.19683677	0.024496246	0.0004825569	0.0002271664
0.1970337	0.025559105	0.00050611387	0.0002271664
0.19723064	0.018673023	0.00036828947	0.0002271664
0.19742757	0.027005561	0.00053337245	0.0002271664
0.1976245	0.029305499	0.00058202742	0.00022715423
0.19782144	0.024940617	0.00049162499	0.0002271664
0.19801837	0.023961661	0.00047413228	0.0002271664
0.19821531	0.023135221	0.00045731655	0.00022715998
0.19841225	0.021496816	0.00042411091	0.0002271664
0.19860919	0.020416332	0.00040454647	0.00022715423
0.19880612	0.022195799	0.00043758471	0.00022715423
0.19900306	0.020908725	0.00041514193	0.00022715423
0.19919999	0.027124053	0.00053759629	0.00022715423
0.19939692	0.028286852	0.00055994012	0.00022715423
0.19959386	0.029838709	0.00059457199	0.0002271664
0.19979079	0.035429936	0.00070234301	0.00022715423
0.19998772	0.031262524	0.00062125101	0.00022715423
0.20018466	0.019936204	0.00039384337	0.00022715998
0.20038161	0.024527544	0.00048734786	0.00022715423
0.20057854	0.015606242	0.00030822057	0.00022715423
0.20077547	0.021973632	0.00043425788	0.00022715423
0.20097241	0.025775272	0.00051267655	0.00022715423
0.20116934	0.019568689	0.00038630355	0.00022715423
0.20136628	0.027364185	0.00054415344	0.00022714208
0.20156321	0.023618896	0.00046822784	0.00022715423
0.20176014	0.025392987	0.00050441385	0.00022714208
0.20195708	0.026020817	0.0005165835	0.00022715423
0.20215401	0.030485358	0.00060612173	0.00022715998
0.20235096	0.026983488	0.00053671433	0.00022714208
0.20254789	0.031212484	0.00061965635	0.00022714208
0.20274483	0.025963489	0.0005185607	0.00022714208
0.20294176	0.028411364	0.00056386919	0.00022714208
0.20313869	0.018593371	0.00036944807	0.00022714208
0.20333563	0.024646465	0.00049062807	0.00022714208
0.20353256	0.022301871	0.00044029535	0.00022712992
0.2037295	0.028025996	0.00055987801	0.00022712992
0.20392643	0.024429316	0.0004842901	0.00022714208
0.20412336	0.028003247	0.00055967452	0.00022714782
0.20432031	0.022974607	0.00045655962	0.00022714208
0.20451725	0.024458701	0.00048543006	0.00022714208
0.20471418	0.02437043	0.00048659372	0.00022712992
0.20491111	0.024790084	0.00049139676	0.00022714208
0.20510805	0.021535961	0.0004294664	0.00022712992
0.20530498	0.027867528	0.00055549154	0.00022712992
0.20550191	0.022480931	0.00044575456	0.00022712992
0.20569885	0.023265306	0.00046510721	0.00022712992
0.20589578	0.020048115	0.00039683981	0.00022712992
0.20609272	0.026883909	0.00053831603	0.00022713565
0.20628966	0.030632809	0.00061084691	0.00022712992
0.2064866	0.02515213	0.00050180318	0.00022711777
0.20668353	0.022357723	0.00044644834	0.00022712992
0.20688047	0.025785657	0.00051324145	0.00022712992
0.2070774	0.023500809	0.00046848488	0.00022711777
0.20727433	0.031010874	0.00061787863	0.00022711777
0.20747127	0.02892057	0.00057874765	0.00022711777
0.2076682	0.021933388	0.00043755761	0.00022712992
0.20786513	0.021422798	0.00042655025	0.00022712992
0.20806207	0.025651466	0.00051292672	0.0002271235
0.20825902	0.027856277	0.00055515516	0.00022711777
0.20845595	0.026079869	0.00052179233	0.00022711777
0.20865288	0.027070707	0.0005390743	0.00022711777
0.20884982	0.020008167	0.00039973255	0.00022711777
0.20904675	0.024816925	0.00049627072	0.00022711777
0.20924369	0.024340771	0.00048611793	0.0002271056
0.20944062	0.025516404	0.00050927215	0.00022711777
0.20963755	0.024726389	0.00049328705	0.00022711777
0.20983449	0.025082236	0.00050411338	0.00022711777
0.21003142	0.027597403	0.00055185321	0.00022711133
0.21022837	0.03135179	0.00062820443	0.00022711777
0.2104253	0.033414833	0.0006693296	0.00022711777
0.21062224	0.033857316	0.00067532744	0.0002271056
0.21081917	0.030902348	0.00062253146	0.0002271056
0.2110161	0.027125506	0.00054132572	0.0002271056
0.21121304	0.03257329	0.00065266714	0.0002271056
0.21140997	0.024867509	0.00049778901	0.0002271056
0.2116069	0.019607844	0.00039153424	0.0002271056
0.21180384	0.022513304	0.00045111708	0.0002271056
0.21200077	0.021818181	0.00043335362	0.00022711133
0.21219772	0.019341564	0.00038716779	0.00022709343
0.21239465	0.022596549	0.00045300965	0.0002271056
0.21259159	0.02112104	0.00042132297	0.0002271056
0.21278852	0.018367346	0.0003668197	0.0002271056
0.21298546	0.021509741	0.00042868222	0.00022709343
0.21318239	0.019389439	0.00038896769	0.00022709343
0.21337932	0.028003247	0.00055943552	0.00022709343
0.21357626	0.019615857	0.00039194856	0.0002271056
0.21377319	0.02476269	0.00049824954	0.0002271056
0.21397012	0.024827024	0.00049643789	0.00022709918
0.21416707	0.023293829	0.00046654866	0.00022709343
0.21436401	0.028128821	0.00056344387	0.00022709343
0.21456094	0.025472473	0.00051087869	0.00022709343
0.21475787	0.032019705	0.00064299238	0.00022708128
0.21495481	0.026563138	0.00053153647	0.00022709343
0.21515174	0.032773454	0.00065827538	0.00022709343
0.21534868	0.029881293	0.00059949618	0.00022708128
0.21554561	0.031288598	0.00062957261	0.00022709343
0.21574254	0.030637255	0.00061453704	0.00022708128
0.21593948	0.027983539	0.00056335359	0.00022709918
0.21613643	0.027914613	0.00056102662	0.00022708128
0.21633336	0.022550225	0.0004523799	0.00022708128
0.21653029	0.020131471	0.0004030898	0.00022708128
0.21672723	0.01876785	0.00037447989	0.00022709343
0.21692416	0.026804123	0.00053930772	0.00022708128
0.21712109	0.019712526	0.0003941473	0.00022708128
0.21731803	0.021765914	0.0004355695	0.00022708128
0.21751496	0.024289832	0.00048789382	0.00022708128
0.2177119	0.02892057	0.00057886442	0.00022708128
0.21790883	0.02285002	0.00046065435	0.00022708702
0.21810578	0.028186275	0.00056480913	0.00022708128
0.21830271	0.026446281	0.00053256383	0.00022708128
0.21849965	0.024691358	0.00049623835	0.00022706912
0.21869658	0.018003274	0.00035950745	0.00022708128
0.21889351	0.016583748	0.00033306493	0.00022706912
0.21909045	0.015977059	0.00031884125	0.00022706912
0.21928738	0.027651671	0.00055690209	0.00022706912
0.21948431	0.023514852	0.00047290861	0.00022706912
0.21968125	0.026304973	0.00052856345	0.00022706912
0.21987818	0.018159308	0.00036438502	0.00022707487
0.22007513	0.023741301	0.00047511817	0.00022706912
0.22027206	0.020738283	0.00041716814	0.00022706912
0.220469	0.023399014	0.00046912304	0.00022706912
0.22066593	0.021109272	0.00042431688	0.00022705697
0.22086287	0.028406752	0.00057193846	0.00022705697
0.2210598	0.022661723	0.00045527876	0.00022705697
0.22125673	0.023169218	0.00046668819	0.00022705697
0.22145367	0.026033059	0.00052468543	0.00022705697
0.2216506	0.01983471	0.00039870429	0.00022706912
0.22184753	0.021810699	0.00043818945	0.00022707487
0.22204448	0.031120332	0.00062924449	0.00022705697
0.22224142	0.025165016	0.00050647272	0.00022705697
0.22243835	0.020618556	0.00041423822	0.00022705697
0.22263528	0.024461029	0.00049335079	0.00022705697
0.22283222	0.021381579	0.00042800797	0.00022704482
0.22302915	0.024979183	0.00050494174	0.00022705697
0.22322609	0.027261462	0.00054944074	0.00022704482
0.22342302	0.026304973	0.00052895758	0.00022704482
0.22361995	0.022831051	0.0004605471	0.00022705697
0.22381689	0.022295624	0.00044844334	0.0002270627
0.22401384	0.023799583	0.00048182748	0.00022704482
0.22421077	0.019753087	0.00039642124	0.00022704482
0.2244077	0.024844721	0.00050058577	0.00022704482
0.22460464	0.027465668	0.0005554969	0.00022704482
0.22480157	0.019301848	0.00038687227	0.00022704482
0.2249985	0.020545073	0.00041539993	0.00022704482
0.22519544	0.029918034	0.00060071703	0.00022704482
0.22539237	0.022869023	0.00046138506	0.00022704482
0.22558931	0.025930572	0.00052514218	0.00022704482
0.22578624	0.031875767	0.00063898164	0.00022703838
0.22598319	0.024989588	0.00050554326	0.00022703265
0.22618012	0.03348491	0.00067569735	0.00022704482
0.22637706	0.025115112	0.0005089253	0.00022704482
0.22657399	0.026523	0.00053528248	0.00022703265
0.22677092	0.021973467	0.00044213797	0.00022703265
0.22696786	0.027363185	0.00055213203	0.00022703265
0.22716479	0.031884059	0.00064394128	0.00022704482
0.22736172	0.017984107	0.00036295914	0.00022703265
0.22755866	0.01983471	0.00039817279	0.00022703265
0.22775559	0.023401588	0.00047357343	0.00022703265
0.22795253	0.019071311	0.00038341439	0.00022703838
0.22814947	0.020348838	0.00040981165	0.00022703265
0.22834641	0.021144278	0.00042570804	0.00022703265
0.22854334	0.021188201	0.00042686737	0.0002270205
0.22874027	0.025220681	0.00051228306	0.00022703265
0.22893721	0.030127941	0.00060716679	0.00022703265
0.22913414	0.023294508	0.00047047934	0.0002270205
0.22933108	0.018687708	0.00037607897	0.0002270205
0.22952801	0.022092538	0.00044654927	0.0002270205
0.22972494	0.022074135	0.00044582924	0.0002270205
0.22992188	0.021558871	0.00043432915	0.00022703838
0.23011883	0.024936602	0.00050766149	0.0002270205
0.23031576	0.023947151	0.00048218868	0.0002270205
0.23051269	0.024552643	0.00049568928	0.0002270205
0.23070963	0.017916666	0.00036051788	0.0002270205
0.23090656	0.016583748	0.00033285079	0.00022700834
0.23110349	0.025587248	0.00051899021	0.00022700834
0.23130043	0.025865665	0.00052303256	0.0002270205
0.23149736	0.019134775	0.00038514321	0.0002270205
0.2316943	0.027986633	0.00056705321	0.0002270205
0.23189123	0.02988792	0.00060458924	0.00022701408
0.23208818	0.027661357	0.00056131382	0.00022700834
0.23228511	0.029975021	0.00060675869	0.00022700834
0.23248205	0.027998328	0.00056728005	0.00022700834
0.23267898	0.023879347	0.00048425212	0.00022700834
0.23287591	0.032418951	0.00065538642	0.00022700834
0.23307285	0.03136763	0.00063710561	0.00022700834
0.23326978	0.025020851	0.00050620583	0.00022700834
0.23346671	0.024207011	0.00049005967	0.00022700834
0.23366365	0.021867115	0.0004433431	0.00022700834
0.23386058	0.022537563	0.00045512471	0.00022701408
0.23405753	0.025185797	0.00050710025	0.00022699618
0.23425446	0.021455616	0.00043531752	0.00022700834
0.2344514	0.019714765	0.0003986143	0.00022699618
0.23464833	0.023819473	0.00048212899	0.00022699618
0.23484527	0.024247492	0.0004912896	0.00022700834
0.2350422	0.020066889	0.0004059065	0.00022700834
0.23523913	0.026879461	0.0005461112	0.00022699618
0.23543607	0.022897586	0.0004627181	0.00022699618
0.235633	0.025501672	0.00051695429	0.00022699618
0.23582993	0.024717219	0.00050097599	0.00022700192
0.23602688	0.029473685	0.00060008065	0.00022698403
0.23622382	0.033347227	0.000676069	0.00022699618
0.23642075	0.025876461	0.00052391569	0.00022699618
0.23661768	0.019279128	0.00038988833	0.00022698403
0.23681462	0.023569023	0.00047866572	0.00022698403
0.23701155	0.02047639	0.00041402422	0.00022699618
0.23720849	0.016290726	0.00032783343	0.00022698403
0.23740542	0.015533165	0.00031281984	0.00022699618
0.23760235	0.017190775	0.00034733629	0.00022698403
0.23779929	0.017219655	0.0003475729	0.00022698977
0.23799624	0.015025042	0.00030224229	0.00022698403
0.23819317	0.01345103	0.00027066874	0.00022698403
0.2383901	0.020990765	0.00042550705	0.00022698403
0.23858704	0.023460411	0.0004752056	0.00022698403
0.23878397	0.020117352	0.00040635272	0.00022698403
0.2389809	0.022651007	0.00045840483	0.00022697187
0.23917784	0.019335855	0.00039161064	0.00022697187
0.23937477	0.0252738	0.00051361148	0.00022698403
0.23957171	0.024706868	0.00050066126	0.00022697187
0.23976864	0.018348623	0.00036990282	0.00022697762
0.23996559	0.018526316	0.00037469246	0.00022697187
0.24016252	0.019035533	0.00038643292	0.00022697187
0.24035946	0.020877717	0.00042625744	0.00022697187
0.24055639	0.011411665	0.00023027048	0.00022697187
0.24075332	0.022146508	0.00045238098	0.00022697187
0.24095026	0.018018018	0.00036859038	0.00022697187
0.24114719	0.02	0.00040805389	0.00022697187
0.24134412	0.020985011	0.00042899884	0.00022697187
0.24154106	0.011647972	0.00023678341	0.00022697187
0.24173799	0.017263703	0.00035307789	0.00022696547
0.24193494	0.015190972	0.00031146762	0.00022697187
0.24213187	0.019363167	0.00039685582	0.00022695972
0.24232881	0.017927416	0.00037012863	0.00022697187
0.24252574	0.024048973	0.00049805961	0.00022695972
0.24272268	0.024890829	0.00051550986	0.00022695972
0.24291961	0.022457067	0.00046633618	0.00022695972
0.24311654	0.017406441	0.00035792743	0.00022695972
0.24331348	0.020435361	0.00042548875	0.00022695972
0.24351041	0.021604938	0.00044834256	0.00022695972
0.24370734	0.018926056	0.00039206719	0.00022696547
0.24390429	0.017793594	0.00036993693	0.00022695972
0.24410123	0.023255814	0.00048679759	0.00022695972
0.24429816	0.015985791	0.00033195881	0.00022694757
0.24449509	0.018730015	0.00039478132	0.00022694757
0.24469203	0.015207374	0.00032154549	0.00022695972
0.24488896	0.019681349	0.00041932822	0.00022694757
0.2450859	0.016455101	0.00035115043	0.00022694757
0.24528283	0.020823473	0.00044746033	0.00022694757
0.24547976	0.020028612	0.00043198647	0.00022694757
0.2456767	0.023580365	0.0005114465	0.0002269533
0.24587364	0.01875902	0.00040593228	0.00022694757
0.24607058	0.023797961	0.00051854324	0.0002269354
0.24626751	0.017926356	0.00038930753	0.00022694757
0.24646445	0.021171836	0.00046389474	0.00022694757
0.24666138	0.021130221	0.00046304052	0.00022694757
0.24685831	0.020226937	0.00044304982	0.0002269354
0.24705525	0.021857923	0.0004812195	0.0002269354
0.24725218	0.020968547	0.00046275512	0.0002269354
0.24744911	0.021618905	0.00047866802	0.00022694757
0.24764605	0.025487257	0.00056385458	0.00022694115
0.247843	0.020644512	0.00045712205	0.0002269354
0.24803993	0.017893661	0.00039786307	0.0002269354
0.24823686	0.01947719	0.00043336797	0.0002269354
0.2484338	0.021384928	0.00047605488	0.00022692325
0.24863073	0.022119341	0.00049456174	0.0002269354
0.24882767	0.021604938	0.00048398462	0.00022692325
0.2490246	0.017071908	0.0003821069	0.00022692325
0.24922153	0.014629049	0.00032844412	0.00022692325
0.24941847	0.016087182	0.00035982858	0.00022692325
0.2496154	0.016341591	0.00036760292	0.000226929
0.24981235	0.015839493	0.00035752347	0.00022692965
0.25000927	0.01305483	0.00029139587	0.00022692325
0.2502062	0.018133333	0.00041267709	0.0002269354
0.25040314	0.016419491	0.00037183778	0.0002269111
0.25060007	0.017847486	0.00040844391	0.0002269226
0.25079703	0.010683761	0.00024010609	0.0002269111
0.25099397	0.019881785	0.00045370014	0.0002269111
0.2511909	0.016820401	0.00038554167	0.0002269111
0.25138783	0.018309101	0.00041831951	0.0002269111
0.25158477	0.023978202	0.00055263081	0.0002269111
0.2517817	0.02510917	0.00057926157	0.0002269111
0.25197864	0.022465754	0.00051766873	0.0002269111
0.25217557	0.024376731	0.00056556618	0.0002269111
0.2523725	0.024149286	0.00055737107	0.0002269111
0.25256944	0.027793219	0.00064754346	0.0002269111
0.25276637	0.023320377	0.00054182054	0.0002269111
0.2529633	0.020658851	0.00048056227	0.0002268868
0.25316024	0.018018018	0.00042008416	0.0002269111
0.25335717	0.01762365	0.00041304625	0.0002269111
0.25355411	0.014645577	0.00034451089	0.0002269111
0.25375104	0.014440433	0.00034623066	0.0002269111
0.25394797	0.023550725	0.00057027437	0.0002268868
0.25414491	0.026412776	0.00064680009	0.0002269111
0.25434184	0.021505376	0.00053158373	0.0002269111
0.25453877	0.017578125	0.00043901798	0.0002269226
0.25473574	0.019476159	0.00049550307	0.0002268868
0.25493267	0.02520436	0.00064812374	0.0002269111
0.25512961	0.027816411	0.00071990152	0.0002269111
0.25532654	0.022001419	0.00057618466	0.0002269111
0.25552347	0.020393299	0.00053921423	0.0002268868
0.25572041	0.018181818	0.00049008703	0.0002269111
0.25591734	0.021069692	0.0005865696	0.0002269111
0.25611427	0.022355976	0.00064210303	0.0002268868
0.25631121	0.023744293	0.00070285337	0.0002268868
0.25650814	0.035815269	0.0010831677	0.0002268868
0.25670508	0.021297192	0.00064349064	0.0002268868
0.25690201	0.015856236	0.00049354479	0.0002268868
0.25709894	0.013468013	0.00042894238	0.0002268868
0.25729588	0.016528925	0.0005445875	0.0002268868
0.25749281	0.011990407	0.00038972008	0.0002268868
0.25768974	0.011320755	0.00037348366	0.0002268868
0.25788668	0.021992238	0.0007565085	0.0002268868
0.25808361	0.010680908	0.00036530985	0.0002268868
0.25828055	0.02872777	0.0010376379	0.0002268868
0.25847748	0.044349071	0.0016477852	0.00022689829
0.25867444	0.036390103	0.0013613093	0.00022686248
0.25887138	0.021406727	0.00080723758	0.00022686248
0.25906831	0.024691358	0.00093989313	0.00022686248
0.25926524	0.022187004	0.00084710377	0.0002268868
0.25946218	0.016722407	0.00064928131	0.00022686248
0.25965911	0.013582343	0.00052395026	0.0002268868
0.25985605	0.025996534	0.0010414649	0.0002268868
0.26005298	0.022569444	0.00089847081	0.00022686248
0.26024991	0.020979021	0.00084056804	0.00022686248
0.26044685	0.033928573	0.0013803185	0.0002268868
0.26064378	0.024955437	0.0010161991	0.00022686248
0.26084071	0.025179856	0.0010242712	0.00022686248
0.26103765	0.040515654	0.0016892073	0.00022686248
0.26123458	0.02037037	0.00082894124	0.00022686248
0.26143152	0.026415095	0.0011006078	0.0002268868
0.26162845	0.018484289	0.00075461791	0.00022686248
0.26182538	0.040152963	0.0017110046	0.00022686248
0.26202232	0.039138943	0.0016847673	0.00022686248
0.26221925	0.0079365084	0.0002797599	0.00022686248
0.26241618	0.028680688	0.0012127539	0.00022684968
0.26261315	0.023809524	0.0010086887	0.00022683818
0.26281008	0.036585364	0.0015993037	0.00022686248
0.26300701	0.034907598	0.001530505	0.00022686248
0.26320395	0.018108651	0.00076660037	0.00022683818
0.26340088	0.027484143	0.0012154306	0.00022686248
0.26359782	0.023012552	0.0010046372	0.00022683818
0.26379475	0.027777778	0.0012349745	0.00022686248
0.26399168	0.014957265	0.00064079679	0.00022683818
0.26418862	0.021739131	0.00096262485	0.00022683818
0.26438555	0.020134227	0.00089885842	0.00022683818
0.26458248	0.013729977	0.00060025521	0.00022683818
0.26477942	0.013452915	0.00058216456	0.00022683818
0.26497635	0.0046620048	0.00015934404	0.00022686248
0.26517329	0.0069930069	0.00027599197	0.00022683818
0.26537022	0.026894866	0.0012695299	0.00022683818
0.26556715	0.012019231	0.00052771281	0.00022683818
0.26576409	0.01980198	0.00092269917	0.00022683818
0.26596102	0.035353534	0.0017141228	0.00022683818
0.26615795	0.018134715	0.0008556713	0.00022683818
0.26635489	0.017902814	0.00083929679	0.00022684968
0.26655185	0.0132626	0.00061175809	0.00022681388
0.26674879	0.010958904	0.00049744733	0.00022683818
0.26694572	0.016216217	0.00077062967	0.00022683818
0.26714265	0.016438356	0.00078653323	0.00022681388
0.26733959	0.02259887	0.0011251317	0.00022681388
0.26753652	0.0085714282	0.00037462337	0.00022681388
0.26773345	0.0090634441	0.0004073715	0.00022683818
0.26793039	0.035820894	0.0018623171	0.00022683818
0.26812732	0.032544378	0.0016903034	0.00022683818
0.26832426	0.03125	0.001659877	0.00022683818
0.26852119	0.031746034	0.0016995968	0.00022683818
0.26871812	0.019292604	0.001000275	0.00022683818
0.26891506	0.025723472	0.0013666357	0.00022681388
0.26911199	0.026936026	0.0014645079	0.00022683818
0.26930892	0.033557046	0.0018472546	0.00022683818
0.26950586	0.020761246	0.0011167772	0.00022683818
0.26970279	0.01718213	0.00090244977	0.00022681388
0.26989973	0.025362318	0.0014159542	0.00022681388
0.27009666	0.026217228	0.0014523722	0.00022681388
0.27029359	0.0038167939	0	0.00022684968
0.27049056	0.0073260074	0.00031409998	0.00022681388
0.27068749	0.0038910506	0	0.00022681388
0.27088442	0.0080321282	0.00036065321	0.00022681388
0.27108136	0.0041841003	0	0.00022681388
0.27127829	0	0	0.00022681388
0.27147523	0.014184397	0.00084767985	0.00022681388
0.27167216	0.011363637	0	0.00022681388
0.27186909	0	0	0.00022681388
0.27206603	0	0	0.00022681388
0.27226296	0	0	0.00022681388
