#   DataFileName=PAL30_95C_WAXS_08172017.tif
#   DataFileType=.tif
#   
#   DataFilePath=E:DATA:PAL30_08262017:
#   
#   Processed on=Wed, Jan 16, 2019,2:42:01 AM
#   Units=Arbitrary
#   SampleThickness=1
#   SampleTransmission=1
#   CorrectionFactor=1
#   SampleMeasurementTime=1
#   EmptyMeasurementTime=1
#   BackgroundMeasTime=1
#   SampleI0=1
#   EmptyI0=1
#   Nika_SampleToDetectorDistacne=1552.1
#   Nika_Wavelength=1.54
#   Nika_XrayEnergy=8.0509
#   Nika_PixelSizeX=0.075
#   Nika_PixelSizeY=0.075
#   Nika_HorizontalTilt=0
#   Nika_VerticalTilt=0
#   Nika_BeamCenterX=1540.3
#   Nika_BeamCenterY=830.17
#   Nika_BeamSizeX=0
#   Nika_BeamCenterY=830.17
#   CalibrationFormula=1*((Sa2D))
#   CurrentMaskFileName=PAL30_30C_WAXS_mask.hdf
#   QvectorMaxNumPnts=1
#   QvectorNumberPoints=1383
#   CircularAverage=1
#   PolarizationCorrection=None
#   UncertainityCalculationMethod=OldNikaMethod

0.0060065244	8.5	5.4772258	0.00022756745
0.00620346	6.5999999	1.3109285	0.00022756765
0.0064003952	4.9298244	0.65036625	0.00022756765
0.0065973303	5.0875001	0.56724268	0.00022756765
0.0067942655	8.3265305	0.83447117	0.00022756765
0.0069912006	9.6728973	0.91716629	0.00022756745
0.0071881362	12.639344	1.114652	0.00022756727
0.0073850714	15.198473	1.294275	0.00022756727
0.0075820065	14.351724	1.1671901	0.00022756727
0.0077789417	13.353742	1.0813181	0.00022756745
0.0079758773	12.43038	0.97090334	0.00022756746
0.0081728119	10.96319	0.84446275	0.00022756707
0.0083697475	9.4606743	0.69897121	0.00022756671
0.0085666822	8.6113987	0.61085969	0.00022756783
0.0087636178	7.6461539	0.53895801	0.00022756783
0.0089605534	6.8341231	0.46454823	0.00022756746
0.0091574881	5.7292576	0.37327832	0.00022756707
0.0093544237	5.0879998	0.31824115	0.00022756671
0.0095513584	4.5551329	0.27800673	0.00022756707
0.009748294	4.4227943	0.26575351	0.00022756707
0.0099452296	3.8050542	0.22599676	0.00022756595
0.010142164	3.7014389	0.21952949	0.00022756707
0.0103391	3.1515152	0.18075128	0.00022756671
0.010536035	3.179661	0.18334463	0.00022756707
0.01073297	2.8881578	0.16416791	0.00022756783
0.010929906	2.8360128	0.15943246	0.00022756746
0.01112684	2.4440894	0.13699552	0.00022756783
0.011323776	2.2951808	0.1247431	0.00022756746
0.011520711	2.2530489	0.1233932	0.00022756707
0.011717646	1.9082841	0.10292799	0.00022756707
0.011914582	1.8596492	0.099718384	0.00022756746
0.012111517	1.7594203	0.094029814	0.00022756783
0.012308452	1.5851648	0.082332522	0.00022756671
0.012505387	1.6525424	0.087140404	0.00022756783
0.012702323	1.5820106	0.080918469	0.00022756783
0.012899258	1.3619303	0.070051275	0.00022756671
0.013096193	1.2486911	0.063396931	0.00022756707
0.013293128	1.3043479	0.065478221	0.00022756671
0.013490063	1.1752577	0.05928342	0.00022756707
0.013686999	1.0294118	0.050639864	0.00022756707
0.013883934	1.0973237	0.053731252	0.00022756671
0.014080869	1.0645933	0.051744778	0.00022756707
0.014277805	0.87529409	0.042195417	0.00022756671
0.014474739	0.86997634	0.042049449	0.0002275663
0.014671675	0.86455983	0.040827923	0.00022756707
0.014868611	0.81818181	0.038765423	0.00022756671
0.015065545	0.79780221	0.037199683	0.0002275663
0.015262481	0.84120172	0.03873593	0.00022756671
0.015459416	0.74065936	0.034554109	0.00022756595
0.01565635	0.73134327	0.033605043	0.00022756707
0.015853286	0.64755839	0.029680721	0.00022756554
0.016050221	0.6618557	0.029877951	0.00022756707
0.016247157	0.70647776	0.031624123	0.00022756707
0.016444093	0.56199998	0.02501783	0.00022756483
0.016641026	0.60441768	0.026937265	0.00022756707
0.016837962	0.61122245	0.027243547	0.00022756707
0.017034898	0.5019455	0.022001717	0.00022756554
0.017231833	0.55066919	0.023976568	0.00022756554
0.017428769	0.49525616	0.021477383	0.00022756483
0.017625703	0.52149534	0.022428157	0.00022756554
0.017822638	0.43947858	0.018880403	0.00022756554
0.018019574	0.44485295	0.018981278	0.00022756554
0.018216509	0.48175183	0.020515598	0.00022756554
0.018413445	0.45080501	0.018988594	0.00022756483
0.018610379	0.42932862	0.017977523	0.00022756554
0.018807314	0.41361257	0.017189784	0.00022756554
0.01900425	0.37781629	0.015644321	0.00022756554
0.019201186	0.37937063	0.015786737	0.00022756554
0.019398121	0.36515912	0.014891575	0.00022756483
0.019595055	0.36610168	0.015008784	0.00022756554
0.019791991	0.29917356	0.012087622	0.00022756554
0.019988926	0.30247933	0.012226405	0.00022756554
0.020185862	0.33333334	0.013417654	0.00022756554
0.020382797	0.29140127	0.011565815	0.00022756483
0.020579731	0.28802589	0.011531631	0.00022756403
0.020776667	0.26645768	0.010500662	0.00022756403
0.020973602	0.28951487	0.011405096	0.00022756554
0.021170538	0.32499999	0.012793945	0.00022756403
0.021367474	0.31070891	0.012024141	0.0002275633
0.021564407	0.25541794	0.010008006	0.00022756403
0.021761343	0.27653214	0.010639001	0.00022756403
0.021958278	0.23378582	0.0090398956	0.00022756403
0.022155214	0.27312776	0.010414463	0.00022756403
0.02235215	0.23401164	0.0088854609	0.0002275633
0.022549083	0.20851688	0.0079557048	0.00022756403
0.022746019	0.22978723	0.0086157676	0.00022756403
0.022942955	0.23385939	0.0088184234	0.00022756403
0.02313989	0.22489391	0.0084222089	0.00022756403
0.023336826	0.21757323	0.0080882134	0.0002275633
0.02353376	0.21097046	0.0078763012	0.00022756403
0.023730695	0.23066486	0.0084688142	0.00022756403
0.023927631	0.23310345	0.0086323787	0.0002275625
0.024124566	0.2386059	0.0086864866	0.00022756403
0.024321502	0.20375335	0.0074286698	0.00022756179
0.024518436	0.19463088	0.0071023474	0.0002275625
0.024715371	0.18972331	0.0068604196	0.0002275625
0.024912307	0.18361954	0.0066496017	0.0002275625
0.025109243	0.1713555	0.0061018011	0.0002275625
0.025306178	0.17981888	0.0064441296	0.00022756179
0.025503112	0.17624521	0.0062690014	0.0002275625
0.025700048	0.14739518	0.0052252747	0.0002275625
0.025896983	0.18956743	0.00673556	0.0002275625
0.026093919	0.18226601	0.0063709388	0.00022756097
0.026290854	0.191067	0.0067069116	0.00022756179
0.026487788	0.15365854	0.005341799	0.0002275625
0.026684724	0.18826406	0.0065578576	0.00022756097
0.026881659	0.1315469	0.004569333	0.0002275625
0.027078595	0.17303103	0.0059510269	0.00022756097
0.027275531	0.16245487	0.005611442	0.00022756179
0.027472464	0.17229337	0.0058548138	0.00022756097
0.0276694	0.13356975	0.0045705843	0.00022756097
0.027866336	0.18213457	0.00618177	0.00022756097
0.028063271	0.18720931	0.0063619432	0.00022756097
0.028260207	0.14801864	0.005031867	0.00022756026
0.028457141	0.15824915	0.0052819299	0.00022756097
0.028654076	0.17707151	0.0059430227	0.00022756097
0.028851012	0.15659955	0.0052187028	0.00022756097
0.029047947	0.1556551	0.0051896875	0.00022756097
0.029244883	0.13160855	0.0043953108	0.00022756026
0.029441817	0.15577342	0.0051230434	0.00022756097
0.029638752	0.18131869	0.0059932712	0.00022755946
0.029835688	0.15533981	0.0050828252	0.00022756097
0.030032624	0.15053764	0.0049180202	0.00022755946
0.030229559	0.13095239	0.004290136	0.00022755875
0.030426493	0.12765957	0.0041474556	0.00022755946
0.030623429	0.15228967	0.004951844	0.00022755946
0.030820364	0.14241487	0.0045578764	0.00022755946
0.0310173	0.13985279	0.0045169853	0.00022755946
0.031214235	0.1493776	0.0047936202	0.00022755946
0.031411171	0.12422998	0.0039623133	0.00022755875
0.031608105	0.11582213	0.0037071556	0.00022755571
0.031805038	0.13245703	0.0041964254	0.00022756017
0.032001976	0.1314459	0.0041625057	0.00022755875
0.03219891	0.13165829	0.0041568014	0.00022756017
0.032395847	0.11888112	0.0037400548	0.00022755875
0.032592781	0.14796425	0.0046470654	0.00022755875
0.032789715	0.14579256	0.0045430367	0.00022756017
0.032986652	0.1182266	0.0036956985	0.00022755571
0.033183586	0.12560856	0.003904318	0.00022755713
0.033380523	0.14643545	0.004529783	0.00022755875
0.033577457	0.1088632	0.0033647942	0.00022755571
0.033774391	0.11344137	0.0034874724	0.00022755713
0.033971328	0.11450382	0.0035219733	0.00022755571
0.034168262	0.12677389	0.0038848678	0.00022756017
0.0343652	0.13572101	0.004151111	0.00022755571
0.034562133	0.11699165	0.0035510184	0.00022755571
0.034759067	0.12523191	0.0038007786	0.00022756017
0.034956004	0.12777779	0.0038735801	0.00022755571
0.035152938	0.13333334	0.0040152431	0.00022755713
0.035349876	0.12956205	0.0039003708	0.00022755571
0.035546809	0.11343013	0.0034025947	0.00022755571
0.035743743	0.11865942	0.0035579302	0.00022755713
0.035940681	0.12556054	0.0037459643	0.00022755571
0.036137614	0.10124334	0.0030040585	0.00022755713
0.036334552	0.10568383	0.0031369459	0.00022755266
0.036531486	0.12433863	0.0036787768	0.00022755266
0.036728419	0.11022928	0.0032555456	0.00022755713
0.036925357	0.10521739	0.0030894845	0.00022755571
0.037122291	0.095569067	0.002804403	0.00022755713
0.037319228	0.11091854	0.0032531659	0.00022755571
0.037516162	0.11026294	0.0031981219	0.00022755266
0.037713096	0.09940017	0.0028968749	0.00022755713
0.037910033	0.11243612	0.0032698675	0.00022755266
0.038106967	0.1187447	0.0034461066	0.00022755409
0.038303904	0.107173	0.0031008138	0.00022755266
0.038500838	0.12229617	0.0035160733	0.00022755266
0.038697772	0.10743801	0.0030759759	0.00022755409
0.038894709	0.086092718	0.0024649715	0.00022755266
0.039091643	0.093465671	0.0026764008	0.00022755409
0.03928858	0.10655738	0.0030387682	0.00022755266
0.039485514	0.12347685	0.0035079082	0.00022755266
0.039682448	0.093419984	0.0026519028	0.00022755409
0.039879385	0.11405622	0.0032207512	0.00022755266
0.040076319	0.1048	0.0029528236	0.00022755409
0.040273257	0.10674157	0.0030125678	0.00022754962
0.04047019	0.12490056	0.0035110225	0.00022754962
0.040667124	0.11675933	0.0032799544	0.00022755409
0.040864062	0.10711493	0.0029840576	0.00022755266
0.041060995	0.11275272	0.0031333307	0.00022755409
0.041257933	0.099843994	0.0027775196	0.00022754962
0.041454867	0.11284047	0.0031369899	0.00022755266
0.0416518	0.11284047	0.0031369899	0.00022755409
0.041848738	0.11984733	0.003300875	0.00022754962
0.042045671	0.11026616	0.0030299379	0.00022754801
0.042242609	0.099619769	0.0027362404	0.00022754657
0.042439543	0.096431285	0.0026467354	0.00022754353
0.042636476	0.10293013	0.0028116156	0.00022754801
0.042833414	0.091114461	0.0024905193	0.00022754657
0.043030348	0.10231516	0.0027848035	0.00022754801
0.043227285	0.10856721	0.0029406687	0.00022754353
0.043424219	0.095062636	0.002571054	0.00022754353
0.043621153	0.094117649	0.0025418177	0.00022754801
0.04381809	0.094574779	0.00255051	0.00022754353
0.044015024	0.11265545	0.0030370103	0.00022754495
0.044211961	0.10289855	0.0027604762	0.00022754353
0.044408895	0.087769784	0.0023443911	0.00022754353
0.044605829	0.09841954	0.0026282321	0.00022754495
0.044802766	0.10473458	0.0027953577	0.00022754353
0.0449997	0.097073518	0.0025832939	0.00022754495
0.045196638	0.091872789	0.0024330772	0.00022754353
0.045393571	0.096453898	0.0025592917	0.00022754353
0.045590505	0.094604068	0.0024949822	0.00022754495
0.045787442	0.090462834	0.0023865341	0.00022754048
0.045984376	0.09791667	0.0025714061	0.00022754191
0.046181314	0.086745314	0.0022760429	0.00022754353
0.046378247	0.084254146	0.0022044731	0.00022754048
0.046575181	0.096685082	0.0025315704	0.00022754191
0.046772119	0.08567512	0.0022328894	0.00022754353
0.046969052	0.083049692	0.0021577999	0.00022754495
0.04716599	0.093387865	0.0024291039	0.00022754048
0.047362924	0.094339624	0.0024402426	0.00022754048
0.047559857	0.096514747	0.0024898481	0.00022754495
0.047756795	0.078576222	0.0020272236	0.00022754048
0.047953729	0.090543263	0.0023341014	0.00022754495
0.048150666	0.10351692	0.0026572524	0.00022754048
0.0483476	0.10086264	0.0025882472	0.00022754048
0.048544534	0.091028161	0.0023196514	0.00022754191
0.048741471	0.10613052	0.0027145569	0.00022753744
0.048938405	0.08534202	0.0021676987	0.00022754191
0.049135342	0.085190043	0.0021708829	0.00022754048
0.049332276	0.090084255	0.0022832993	0.00022753744
0.04952921	0.10672703	0.00270471	0.00022753887
0.049726147	0.0967118	0.0024463076	0.00022753744
0.049923081	0.1139962	0.0028594097	0.00022754191
0.050120018	0.080562659	0.0020281165	0.00022753744
0.050316952	0.080614202	0.0020295472	0.00022753744
0.050513886	0.090158731	0.0022610966	0.00022753887
0.050710823	0.084337346	0.0021134096	0.00022753744
0.050907757	0.091868408	0.0022787745	0.00022753887
0.051104695	0.086820737	0.0021591987	0.00022753744
0.051301628	0.083021224	0.0020641217	0.00022753744
0.051498562	0.076779023	0.0019085112	0.00022753887
0.0516955	0.088435374	0.002189398	0.00022753744
0.051892433	0.078335375	0.0019284125	0.00022753887
0.052089371	0.086419754	0.0021371231	0.0002275344
0.052286305	0.074681237	0.0018305699	0.00022753744
0.052483238	0.075987846	0.0018638186	0.00022753583
0.052680176	0.082674772	0.0020286336	0.0002275344
0.052877109	0.077811547	0.0019088627	0.00022753887
0.053074047	0.08318264	0.0020334069	0.0002275344
0.053270981	0.078805968	0.0019161367	0.00022753744
0.053467914	0.088305488	0.0021474767	0.00022753887
0.053664852	0.092796095	0.0022840847	0.0002275344
0.053861786	0.082352944	0.0020391273	0.00022753583
0.054058723	0.077210464	0.001916947	0.0002275344
0.054255657	0.10513296	0.002604035	0.0002275344
0.054452591	0.096310191	0.0023988767	0.00022753583
0.054649528	0.084840924	0.0021090137	0.0002275344
0.054846462	0.091536053	0.0022817068	0.00022753583
0.055043399	0.081915565	0.0020465362	0.00022753136
0.055240333	0.064434618	0.0016095373	0.0002275344
0.055437267	0.078134842	0.0019513541	0.00022753583
0.055634204	0.079474345	0.0019787732	0.00022753136
0.055831138	0.086763777	0.0021739563	0.00022753279
0.056028076	0.088735051	0.0022162453	0.00022753136
0.056225009	0.068268016	0.001705405	0.00022753136
0.056421943	0.091895342	0.0023114134	0.00022753279
0.05661888	0.093651794	0.0023378835	0.00022753136
0.056815814	0.084852293	0.0021177265	0.00022753279
0.057012752	0.091139242	0.002282606	0.00022753136
0.057209685	0.071338385	0.0017830833	0.00022752832
0.057406619	0.084595956	0.0021147074	0.00022753279
0.057603557	0.082754262	0.0020688602	0.00022753136
0.05780049	0.083544306	0.002091805	0.00022753279
0.057997428	0.07788945	0.0019424218	0.00022752832
0.058194362	0.094065659	0.0023528663	0.00022752832
0.058391295	0.10928617	0.0027361077	0.00022752974
0.058588233	0.075187966	0.0018724177	0.00022752832
0.058785167	0.079746835	0.0019959838	0.00022752974
0.058982104	0.072910123	0.0018177092	0.00022752832
0.059179038	0.084798992	0.0021147931	0.00022752832
0.059375972	0.080553807	0.0020096847	0.00022752974
0.059572909	0.077067666	0.0019185162	0.00022752528
0.059769843	0.080025204	0.0019990108	0.00022752974
0.05996678	0.076827757	0.0019022089	0.00022752528
0.060163714	0.066162571	0.0016511459	0.00022752528
0.060360648	0.068578556	0.0017024938	0.00022752974
0.060557585	0.082028806	0.0020414689	0.00022752528
0.060754519	0.070317365	0.0017423051	0.0002275267
0.060951456	0.071161047	0.0017679019	0.00022752528
0.06114839	0.072184198	0.0017899511	0.00022752528
0.061345324	0.080323786	0.0019940308	0.0002275267
0.061542261	0.066459626	0.0016460208	0.00022752528
0.061739195	0.080223881	0.0019899483	0.0002275267
0.061936133	0.071295723	0.0017644991	0.00022752528
0.062133066	0.087871291	0.0021754678	0.00022752528
0.06233	0.079384618	0.0019587968	0.00022752528
0.062526934	0.08343634	0.0020644711	0.0002275251
0.062723875	0.055831265	0.001380839	0.00022751919
0.062920809	0.094327994	0.0023318897	0.00022752528
0.063117743	0.072535649	0.0017963717	0.00022751919
0.063314676	0.072215423	0.0017766245	0.00022751919
0.06351161	0.073304825	0.0018016156	0.00022752814
0.063708551	0.074187614	0.0018277908	0.00022751919
0.063905485	0.06860321	0.0016955546	0.00022751919
0.064102419	0.078048781	0.0019167725	0.00022751919
0.064299352	0.080832824	0.0019908948	0.00022752528
0.064496286	0.068944477	0.0016939359	0.00022752205
0.064693227	0.074726611	0.0018317488	0.00022751919
0.064890161	0.083030306	0.0020340353	0.00022751919
0.065087095	0.080635309	0.0019834857	0.00022752528
0.065284029	0.094074525	0.0023159166	0.00022752528
0.065480962	0.074455209	0.0018226291	0.00022752205
0.065677904	0.075812273	0.0018506638	0.00022752528
0.065874837	0.077434964	0.00189537	0.00022751919
0.066071771	0.081276342	0.0019845886	0.00022751919
0.066268705	0.082829505	0.0020278594	0.00022751919
0.066465639	0.078868151	0.0019260742	0.00022752205
0.06666258	0.083233535	0.0020278057	0.00022751919
0.066859514	0.064809203	0.0015850763	0.00022751919
0.067056447	0.078478001	0.0019049579	0.00022751919
0.067253381	0.081888825	0.0019919043	0.00022751919
0.067450315	0.074716076	0.0018176856	0.00022751596
0.067647256	0.058083832	0.0014122869	0.00022751919
0.06784419	0.07434053	0.0018118784	0.00022751919
0.068041123	0.07692308	0.0018621749	0.00022751311
0.068238057	0.072317727	0.0017522133	0.00022751311
0.068434991	0.077837199	0.0018883131	0.00022752205
0.068631932	0.076241136	0.0018451548	0.00022751311
0.068828866	0.065789476	0.0016008802	0.00022751311
0.0690258	0.07305669	0.0017574572	0.00022751311
0.069222733	0.076741442	0.0018560255	0.00022751311
0.069419667	0.078014188	0.0018871067	0.00022751596
0.069616608	0.082649469	0.0019929761	0.00022751311
0.069813542	0.097475044	0.0023539655	0.00022751311
0.070010476	0.081861012	0.0019772253	0.00022751311
0.07020741	0.066745423	0.0016131419	0.00022751311
0.070404343	0.072212592	0.0017268576	0.00022752205
0.070601285	0.06713368	0.0016134719	0.00022751311
0.070798218	0.067402676	0.0016158959	0.00022751311
0.070995152	0.058064517	0.0013968964	0.00022751311
0.071192086	0.058960889	0.0014163739	0.00022751311
0.071389019	0.056962024	0.0013584162	0.00022751596
0.071585961	0.05800464	0.0013884257	0.00022750701
0.071782894	0.074566476	0.001784251	0.00022751311
0.071979828	0.070226349	0.0016836907	0.00022751311
0.072176762	0.081844382	0.0019567662	0.00022751311
0.072373696	0.082521491	0.0019675319	0.00022751596
0.072570637	0.079420291	0.00190373	0.00022751311
0.072767571	0.082433201	0.0019569972	0.00022750701
0.072964504	0.074652776	0.0017874585	0.00022750701
0.073161438	0.072685972	0.0017230402	0.00022751311
0.073358372	0.076086953	0.0018120839	0.00022750988
0.073555313	0.064516127	0.0015397185	0.00022750701
0.073752247	0.07914076	0.0018737977	0.00022751311
0.073949181	0.067351595	0.0016007419	0.00022750701
0.074146114	0.067911714	0.0016079294	0.00022751311
0.074343048	0.076440386	0.0018168505	0.00022750988
0.074539989	0.063600227	0.0015075273	0.00022750701
0.074736923	0.075461149	0.0017760063	0.00022750701
0.074933857	0.075697213	0.0017972523	0.00022750701
0.07513079	0.074887387	0.0017687861	0.00022750701
0.075327724	0.079391889	0.0018760096	0.0002275038
0.075524665	0.067605637	0.0015975171	0.00022750701
0.075721599	0.081291758	0.0019103423	0.00022750093
0.075918533	0.069819823	0.0016492227	0.00022750701
0.076115467	0.072188027	0.0016999638	0.00022750701
0.0763124	0.084310442	0.0019843075	0.00022750988
0.076509342	0.078976639	0.0018547163	0.00022750701
0.076706275	0.061632425	0.001445184	0.00022750701
0.076903209	0.066143498	0.0015581978	0.00022750701
0.077100143	0.071074381	0.0016601661	0.00022750093
0.077297077	0.063192904	0.001479733	0.0002275038
0.077494018	0.072302558	0.0016978207	0.00022750093
0.077690952	0.072017595	0.0016811049	0.00022750093
0.077887885	0.059610028	0.0013988001	0.00022750093
0.078084819	0.070261441	0.0016326507	0.00022750093
0.078281753	0.075399011	0.0017608681	0.0002275038
0.078478694	0.078701153	0.0018385319	0.00022750093
0.078675628	0.067176409	0.0015629963	0.00022750093
0.078872561	0.081036381	0.0018952867	0.00022750093
0.079069495	0.068664849	0.0015956799	0.00022750093
0.079266429	0.058374248	0.0013561196	0.0002275038
0.07946337	0.053435113	0.0012403979	0.00022750093
0.079660304	0.051379126	0.0011880804	0.00022750093
0.079857238	0.058438011	0.0013579826	0.00022750093
0.080054171	0.057869118	0.0013387887	0.00022750093
0.080251105	0.070844688	0.0016461301	0.0002275038
0.080448046	0.056064691	0.0012945854	0.00022749485
0.08064498	0.053533189	0.0012321089	0.00022750093
0.080841914	0.059078589	0.0013686422	0.00022750093
0.081038848	0.070278972	0.0016207768	0.00022749485
0.081235781	0.063311689	0.001465447	0.00022749772
0.081432723	0.055496264	0.0012747052	0.00022749485
0.081629656	0.067199998	0.0015445877	0.00022749485
0.08182659	0.064809859	0.0014923618	0.00022749485
0.082023524	0.079297498	0.0018221113	0.00022749485
0.082220457	0.079102084	0.0018217774	0.00022749772
0.082417399	0.059733335	0.0013729027	0.00022749485
0.082614332	0.065992549	0.0015158664	0.00022749485
0.082811266	0.066914499	0.0015352411	0.00022749485
0.0830082	0.055263158	0.0012604852	0.00022749485
0.083205134	0.071881607	0.0016458316	0.00022749163
0.083402075	0.052297939	0.001194886	0.00022749485
0.083599009	0.057477381	0.0013191394	0.00022749485
0.083795942	0.06086044	0.0013875444	0.00022748877
0.083992876	0.066003144	0.0015038829	0.00022749485
0.08418981	0.058638744	0.0013352252	0.00022749772
0.084386751	0.066457354	0.001513126	0.00022748877
0.084583685	0.060637742	0.0013800377	0.00022749485
0.084780619	0.070275895	0.0015965441	0.00022749485
0.084977552	0.064196244	0.0014605211	0.00022748877
0.085174486	0.066184074	0.0014980743	0.00022749163
0.085371427	0.051482059	0.0011675112	0.00022748877
0.085568361	0.043232117	0.0009744725	0.00022748877
0.085765295	0.05452675	0.0012299438	0.00022748877
0.085962228	0.06152242	0.0013979655	0.00022748877
0.086159162	0.056127705	0.0012668348	0.00022748555
0.086356103	0.059633028	0.0013399727	0.00022748877
0.086553037	0.056468174	0.0012730566	0.00022748877
0.086749971	0.067546979	0.0015158543	0.00022748877
0.086946905	0.059156377	0.0013353758	0.00022748268
0.087143838	0.068930566	0.0015452569	0.00022749163
0.08734078	0.061193269	0.0013751901	0.00022748877
0.087537713	0.075481258	0.0016922266	0.00022748268
0.087734647	0.056145675	0.0012562211	0.00022748877
0.087931581	0.06300813	0.0014136344	0.00022748877
0.088128515	0.067805126	0.0015131609	0.00022748555
0.088325456	0.057905339	0.0012927388	0.00022748268
0.08852239	0.062278479	0.0013949036	0.00022748268
0.088719323	0.055916127	0.0012433055	0.00022748268
0.088916257	0.062625252	0.0013955759	0.00022748268
0.089113191	0.058441557	0.0012994327	0.00022748555
0.089310132	0.051948052	0.0011551672	0.00022748268
0.089507066	0.045816734	0.0010160378	0.00022748268
0.089703999	0.066468254	0.0014731267	0.00022748268
0.089900933	0.066	0.0014700614	0.00022748268
0.090097867	0.059517954	0.0013133335	0.00022747947
0.090294808	0.064805582	0.0014405076	0.00022748268
0.090491742	0.061667491	0.0013632381	0.00022748268
0.090688676	0.069698468	0.001542775	0.00022748268
0.090885609	0.059230011	0.0013095329	0.0002274766
0.091082543	0.056622352	0.0012502932	0.00022748268
0.091279477	0.060993604	0.0013464607	0.00022748555
0.091476418	0.070339397	0.001553252	0.0002274766
0.091673352	0.061523438	0.0013538979	0.00022748268
0.091870286	0.068728521	0.0015165491	0.0002274766
0.092067219	0.075905971	0.0016736933	0.0002274766
0.092264153	0.065725416	0.0014442292	0.00022747947
0.092461094	0.067317076	0.0014801034	0.0002274766
0.092658028	0.06161369	0.0013567061	0.0002274766
0.092854962	0.069182388	0.0015157526	0.0002274766
0.093051895	0.060415659	0.0013222747	0.0002274766
0.093248829	0.071393877	0.0015675931	0.00022747337
0.09344577	0.080231994	0.0017583994	0.0002274766
0.093642704	0.058309037	0.0012796423	0.00022747052
0.093839638	0.069431052	0.001518607	0.0002274766
0.094036572	0.067340069	0.0014702887	0.0002274766
0.094233505	0.064065509	0.0014000855	0.00022747947
0.094430447	0.057950191	0.0012623863	0.00022747052
0.09462738	0.064251207	0.001406098	0.00022747052
0.094824314	0.06456241	0.0014060599	0.00022747052
0.095021248	0.055528961	0.0012092432	0.00022747052
0.095218182	0.060447406	0.0013129637	0.00022747337
0.095415123	0.064978503	0.0014145748	0.00022747052
0.095612057	0.072415434	0.001574542	0.00022747052
0.09580899	0.049453162	0.0010726427	0.00022747052
0.096005924	0.055980861	0.00121894	0.00022747052
0.096202858	0.06638217	0.0014395425	0.00022747337
0.096399799	0.050591018	0.0010938185	0.00022747052
0.096596733	0.066792101	0.0014425868	0.00022746444
0.096793666	0.06379962	0.001380982	0.00022747052
0.0969906	0.06427221	0.001391039	0.00022746444
0.097187534	0.056550425	0.0012219236	0.00022747337
0.097384475	0.050543223	0.001092751	0.00022746444
0.097581409	0.058740601	0.0012673303	0.00022747052
0.097778343	0.053047929	0.0011387659	0.00022746444
0.097975276	0.065882355	0.0014234588	0.00022746444
0.09817221	0.070895523	0.001525024	0.00022746729
0.098369151	0.072135784	0.0015604189	0.00022746444
0.098566085	0.070402965	0.0015089586	0.00022746444
0.098763019	0.056674473	0.0012208406	0.00022746444
0.098959953	0.066604994	0.001427172	0.00022746444
0.099156886	0.063279442	0.0013543055	0.00022746121
0.099353828	0.056489263	0.0012150276	0.00022746444
0.099550761	0.054832716	0.001175807	0.00022745834
0.099747695	0.055325035	0.0011823338	0.00022745834
0.099944629	0.052728955	0.001128421	0.00022745834
0.10014156	0.066206895	0.0014137061	0.00022746121
0.1003385	0.05260729	0.0011239051	0.00022745834
0.10053544	0.054128442	0.0011538094	0.00022746444
0.10073237	0.058550186	0.0012561346	0.00022745834
0.1009293	0.053620532	0.0011422338	0.00022746444
0.10112624	0.060454544	0.0012830882	0.00022746121
0.10132318	0.047794119	0.0010190173	0.00022746444
0.10152011	0.05497501	0.0011664137	0.00022745834
0.10171705	0.058527663	0.0012461366	0.00022745834
0.10191398	0.058796719	0.00124984	0.00022745834
0.10211091	0.05756053	0.0012245724	0.00022746121
0.10230786	0.051386993	0.0010900906	0.00022745834
0.10250479	0.056962024	0.0012051365	0.00022745226
0.10270172	0.055855855	0.0011798663	0.00022745226
0.10289866	0.054214124	0.0011516517	0.00022745226
0.10309559	0.056407943	0.0011924285	0.00022745512
0.10329253	0.049410697	0.0010468726	0.00022745226
0.10348947	0.065022424	0.0013718205	0.00022745834
0.1036864	0.061261263	0.0012946418	0.00022745226
0.10388333	0.069089279	0.0014582002	0.00022745226
0.10408027	0.070175439	0.0014831431	0.00022746121
0.10427721	0.070852019	0.0014953515	0.00022745226
0.10447414	0.092866756	0.0019613982	0.00022745226
0.10467108	0.07976827	0.0016787826	0.00022745226
0.10486801	0.093428701	0.0019701216	0.00022745226
0.10506494	0.10997783	0.0023108593	0.00022745512
0.10526188	0.10556793	0.0022224423	0.00022745226
0.10545882	0.098925695	0.0020877302	0.00022744617
0.10565575	0.11431103	0.0024009983	0.00022745226
0.10585269	0.098579042	0.0020721946	0.00022745226
0.10604962	0.08966431	0.0018794246	0.00022745512
0.10624656	0.10088496	0.0021168767	0.00022744617
0.10644349	0.09223301	0.0019325507	0.00022744617
0.10664043	0.10303831	0.0021568737	0.00022745226
0.10683736	0.091552414	0.0019202157	0.00022744617
0.1070343	0.080105633	0.0016750518	0.00022744904
0.10723124	0.087888062	0.0018327506	0.00022744617
0.10742817	0.077092513	0.0016131139	0.00022744617
0.1076251	0.077223428	0.0016036337	0.00022744617
0.10782204	0.089230768	0.0018655347	0.00022744617
0.10801897	0.080454744	0.0016770508	0.00022744904
0.10821591	0.089715533	0.0018710871	0.00022744617
0.10841285	0.06364429	0.0013236009	0.00022744617
0.10860978	0.066205107	0.0013724403	0.00022744009
0.10880671	0.067603163	0.0014114581	0.00022744009
0.10900365	0.085023738	0.0017613301	0.00022744904
0.10920059	0.070903592	0.0014695476	0.00022744009
0.10939752	0.079826467	0.0016576885	0.00022744009
0.10959446	0.067818575	0.0014046449	0.00022744009
0.10979139	0.090790614	0.0018874318	0.00022744009
0.10998832	0.078868411	0.0016281733	0.00022744296
0.11018527	0.087106511	0.001803635	0.00022744009
0.1103822	0.084877208	0.0017567328	0.00022744009
0.11057913	0.082403436	0.001702118	0.00022743401
0.11077607	0.074440621	0.001539037	0.00022744009
0.110973	0.071976148	0.0014804661	0.00022743687
0.11116994	0.079948694	0.0016482569	0.00022743401
0.11136688	0.089507498	0.0018472582	0.00022743401
0.11156381	0.10038281	0.0020650432	0.00022743401
0.11176074	0.080769233	0.0016649748	0.00022743401
0.11195768	0.095843934	0.0019689077	0.00022744296
0.11215462	0.10560068	0.0021786366	0.00022743401
0.11235155	0.098471984	0.0020242953	0.00022743401
0.11254849	0.10468552	0.0021461614	0.00022743401
0.11274542	0.096528366	0.0019814565	0.00022743401
0.11294235	0.10776411	0.0022150036	0.00022743687
0.11313929	0.10706729	0.002197895	0.00022743401
0.11333623	0.12798993	0.0026173429	0.00022743401
0.11353316	0.13868922	0.0028473344	0.00022742792
0.1137301	0.15378152	0.0031476938	0.00022743401
0.11392703	0.17991632	0.0036755132	0.00022743079
0.11412397	0.22385553	0.0045829262	0.00022742792
0.1143209	0.27784783	0.0056914506	0.00022742792
0.11451784	0.42611971	0.00871283	0.00022742792
0.11471477	0.67729753	0.013868011	0.00022742792
0.11491171	1.2278376	0.024981925	0.00022743079
0.11510865	2.1978297	0.044888776	0.00022742792
0.11530558	3.6436303	0.074327618	0.00022742792
0.11550251	6.0556254	0.12381829	0.00022742792
0.11569945	9.0978031	0.18517645	0.00022742792
0.11589638	12.57592	0.25576177	0.00022743079
0.11609332	16.436131	0.33413577	0.00022742792
0.11629026	19.771523	0.40219757	0.00022742792
0.11648719	22.480778	0.45703322	0.00022742184
0.11668412	23.854252	0.48466492	0.00022742184
0.11688106	24.350456	0.4955734	0.00022742471
0.117078	23.712172	0.48080143	0.00022742184
0.11727493	22.482603	0.45484838	0.00022742184
0.11747187	20.638149	0.41753539	0.00022742184
0.1176688	18.817959	0.38102156	0.00022742184
0.11786573	17.044554	0.34617558	0.00022742471
0.11806267	15.03675	0.30382532	0.00022742184
0.11825961	13.463335	0.27246723	0.00022742184
0.11845654	11.67356	0.2350352	0.00022742184
0.11865348	9.8791208	0.19925949	0.00022742184
0.11885041	8.3744364	0.16945362	0.00022741863
0.11904735	6.5983806	0.13272464	0.00022741576
0.11924428	5.255899	0.10597687	0.00022741576
0.11944122	3.881068	0.078033797	0.00022741576
0.11963815	2.7420795	0.05524464	0.00022741576
0.11983509	1.8541583	0.037153132	0.00022741863
0.12003203	1.2144588	0.024398718	0.00022741576
0.12022896	0.8622511	0.017375099	0.00022741576
0.12042589	0.66356277	0.013346376	0.00022741576
0.12062283	0.55751503	0.011156494	0.00022741576
0.12081976	0.4661051	0.0093303295	0.00022741863
0.1210167	0.43920001	0.0087791821	0.00022741576
0.12121364	0.3986268	0.008006393	0.00022740968
0.12141057	0.36966068	0.0073811002	0.00022740968
0.1216075	0.33654231	0.0067357249	0.00022741576
0.12180444	0.29538217	0.0058890656	0.00022741254
0.12200138	0.29493824	0.005883377	0.00022740968
0.12219831	0.25519168	0.0050953184	0.00022741576
0.12239525	0.24554455	0.004882195	0.00022741576
0.12259218	0.21414302	0.0042759595	0.00022740968
0.12278911	0.20891365	0.0041627805	0.00022741254
0.12298606	0.20770453	0.0041348967	0.00022740968
0.12318299	0.19517022	0.0038788116	0.00022740968
0.12337992	0.18046293	0.0035701978	0.00022740968
0.12357686	0.18445061	0.0036692852	0.00022740968
0.12377379	0.18214145	0.0036161111	0.00022740646
0.12397073	0.16028425	0.0031800449	0.00022740968
0.12416767	0.16653574	0.003296139	0.00022740359
0.1243646	0.14106584	0.0027879679	0.00022740359
0.12456153	0.13643533	0.0027049331	0.00022740359
0.12475847	0.13989028	0.0027647708	0.00022740646
0.12495541	0.13144432	0.0026033539	0.00022739463
0.12515233	0.13565286	0.0026780872	0.00022740323
0.12534928	0.12845466	0.0025303538	0.00022739751
0.12554622	0.12944858	0.0025558569	0.00022739751
0.12574315	0.12203653	0.0024016595	0.00022739751
0.12594008	0.10902696	0.0021511719	0.00022739751
0.12613702	0.11892732	0.0023403552	0.00022740968
0.12633395	0.12553607	0.002474593	0.00022740968
0.12653089	0.12006196	0.0023583856	0.00022739751
0.12672782	0.11553323	0.0022671174	0.00022739751
0.12692475	0.10981309	0.0021627995	0.00022739751
0.12712169	0.10375191	0.0020261204	0.00022740323
0.12731864	0.10769829	0.0021196238	0.00022739751
0.12751557	0.11196614	0.0021922025	0.00022739751
0.1277125	0.098461539	0.0019268173	0.00022739751
0.12790944	0.093858629	0.001840524	0.00022739751
0.12810637	0.10034602	0.0019632473	0.00022739751
0.1283033	0.10425451	0.0020368199	0.00022739751
0.12850024	0.11153699	0.0021793507	0.00022739751
0.12869717	0.1124283	0.0021942509	0.00022738535
0.12889411	0.10641567	0.0020814855	0.00022739751
0.12909104	0.08976797	0.0017467471	0.00022740323
0.12928799	0.093941718	0.0018354699	0.00022739751
0.12948492	0.088669948	0.0017220343	0.00022739751
0.12968186	0.10431792	0.0020350153	0.00022738535
0.12987879	0.087966487	0.001712597	0.00022738535
0.13007572	0.092697695	0.001799187	0.00022738535
0.13027266	0.089802131	0.0017476812	0.00022738535
0.13046959	0.075963721	0.0014729617	0.00022738535
0.13066652	0.089495637	0.0017387405	0.00022738535
0.13086346	0.08015123	0.0015544889	0.00022739751
0.13106039	0.078394599	0.0015143497	0.00022740323
0.13125734	0.083269961	0.0016197033	0.00022738535
0.13145427	0.085649885	0.0016559865	0.00022738535
0.13165121	0.087005652	0.0016848011	0.00022738535
0.13184814	0.082802549	0.0015990051	0.00022738535
0.13204508	0.078769691	0.001521445	0.00022738535
0.13224201	0.080060422	0.0015520907	0.00022738535
0.13243894	0.09529148	0.0018381374	0.00022738535
0.13263588	0.078986585	0.0015207268	0.00022738535
0.13283281	0.078160062	0.0015074539	0.00022738535
0.13302974	0.081586823	0.0015744822	0.00022739106
0.13322669	0.085074626	0.0016393607	0.00022738535
0.13342363	0.079318017	0.0015230163	0.00022738535
0.13362056	0.081321947	0.001563062	0.00022738535
0.13381749	0.087961234	0.0016941194	0.00022737318
0.13401443	0.086309522	0.0016608593	0.00022737318
0.13421136	0.087940633	0.0016900887	0.00022738535
0.1344083	0.080324247	0.0015380061	0.00022737318
0.13460523	0.075757578	0.0014525636	0.00022737318
0.13480216	0.072862454	0.001400561	0.00022737318
0.1349991	0.074074075	0.0014217151	0.0002273789
0.13519605	0.087559283	0.0016685472	0.00022737318
0.13539298	0.075527586	0.0014494718	0.00022737318
0.13558991	0.071794875	0.0013703194	0.00022737318
0.13578685	0.071297318	0.0013630257	0.00022737318
0.13598378	0.073233247	0.0013972576	0.00022737318
0.13618071	0.083210602	0.0015926384	0.00022737318
0.13637765	0.076528743	0.0014606692	0.00022737318
0.13657458	0.073803432	0.0014071636	0.00022737318
0.13677152	0.080903791	0.0015408819	0.00022737318
0.13696845	0.071947671	0.0013676389	0.00022737318
0.13716538	0.072289154	0.0013777772	0.0002273789
0.13736233	0.066593491	0.0012699421	0.00022737318
0.13755926	0.070086703	0.0013284181	0.00022737318
0.1377562	0.072104879	0.0013724766	0.00022737318
0.13795313	0.081277214	0.0015445023	0.00022736102
0.13815007	0.070422538	0.0013346361	0.00022736102
0.138347	0.076867297	0.0014599606	0.00022737318
0.13854393	0.084532373	0.0015993641	0.00022737318
0.13874087	0.075636365	0.0014384505	0.00022736102
0.1389378	0.058122743	0.0011006421	0.00022736102
0.13913473	0.068792544	0.0012983155	0.00022736673
0.13933168	0.071890727	0.0013589734	0.00022737318
0.13952862	0.071095154	0.0013434346	0.00022737318
0.13972555	0.072311044	0.0013745353	0.00022736102
0.13992248	0.06664291	0.0012545076	0.00022736102
0.14011942	0.074220151	0.001401949	0.00022736102
0.14031635	0.075822607	0.0014303912	0.00022737318
0.14051329	0.069925077	0.0013171657	0.00022736102
0.14071022	0.077143885	0.0014578527	0.00022736102
0.14090715	0.07158044	0.0013439613	0.00022736102
0.14110409	0.061406642	0.0011567833	0.00022736673
0.14130104	0.062544674	0.0011786522	0.00022736102
0.14149797	0.064847626	0.0012171192	0.00022736102
0.1416949	0.071656615	0.0013459417	0.00022734885
0.14189184	0.074911661	0.0014046255	0.00022736102
0.14208877	0.064999998	0.0012247032	0.00022736102
0.1422857	0.071251333	0.0013378655	0.00022736102
0.14248264	0.072657071	0.0013576354	0.00022736102
0.14267957	0.075886525	0.0014253103	0.00022736102
0.14287651	0.069947273	0.0013077165	0.00022736102
0.14307344	0.057324842	0.0010747047	0.00022735457
0.14327039	0.070625439	0.0013202083	0.00022736102
0.14346732	0.063335679	0.0011845169	0.00022734885
0.14366426	0.062829062	0.0011734264	0.00022734885
0.14386119	0.057915058	0.0010816158	0.00022736102
0.14405812	0.054290719	0.0010126649	0.00022734885
0.14425506	0.049529124	0.00092177064	0.00022734885
0.14445199	0.061732724	0.0011525833	0.00022734885
0.14464892	0.05896806	0.0011013923	0.00022734885
0.14484586	0.060827252	0.00113062	0.00022734885
0.14504279	0.06171548	0.0011490856	0.00022735457
0.14523974	0.057014514	0.00105621	0.00022734885
0.14543667	0.066292532	0.0012358665	0.00022733668
0.14563361	0.069073237	0.0012811585	0.00022734885
0.14583054	0.074035451	0.0013752388	0.00022734885
0.14602748	0.062262192	0.0011524089	0.00022734885
0.14622441	0.068189688	0.0012652278	0.00022733668
0.14642134	0.06357982	0.0011784383	0.00022734885
0.14661828	0.0661157	0.0012234028	0.00022733668
0.14681521	0.059272096	0.0010999042	0.00022733668
0.14701214	0.054846499	0.001015212	0.0002273424
0.14720909	0.062693767	0.0011600625	0.00022733668
0.14740603	0.073078252	0.0013532193	0.00022733668
0.14760296	0.056539509	0.0010401052	0.00022733668
0.14779989	0.069238715	0.0012816079	0.00022733668
0.14799683	0.076817088	0.0014222763	0.00022733668
0.14819376	0.060096152	0.0011102953	0.00022733668
0.1483907	0.061622731	0.0011368194	0.00022733668
0.14858763	0.066371679	0.0012210098	0.00022733668
0.14878456	0.06973549	0.0012891316	0.00022733668
0.1489815	0.059999999	0.0011014683	0.0002273424
0.14917845	0.061669506	0.0011347425	0.00022733668
0.14937538	0.056616645	0.0010420062	0.00022733668
0.14957231	0.052827634	0.00096878374	0.00022733668
0.14976925	0.050684933	0.00093465176	0.00022733668
0.14996618	0.057971016	0.0010609904	0.00022733668
0.15016311	0.053220339	0.00097654684	0.00022732452
0.15036005	0.051683102	0.00094958389	0.00022732452
0.15055698	0.060646899	0.0011097135	0.00022733668
0.15075392	0.048606392	0.00089252909	0.00022733668
0.15095085	0.067091577	0.0012217809	0.00022733024
0.1511478	0.062310543	0.0011382018	0.00022732452
0.15134473	0.060196146	0.0011013945	0.00022733668
0.15154167	0.051995974	0.00094913662	0.00022732452
0.1517386	0.056457065	0.0010347038	0.00022732452
0.15193553	0.056932352	0.0010386874	0.00022732452
0.15213247	0.056470588	0.0010320497	0.00022733668
0.1523294	0.060006704	0.001095417	0.00022732452
0.15252633	0.067310899	0.0012254246	0.00022732452
0.15272327	0.068919368	0.0012572436	0.00022732452
0.1529202	0.066733398	0.0012158047	0.00022733024
0.15311715	0.063044935	0.0011512974	0.00022732452
0.15331408	0.059155867	0.0010749134	0.00022732452
0.15351102	0.057513297	0.0010451882	0.00022732452
0.15370795	0.062229618	0.0011319324	0.00022731235
0.15390489	0.068552412	0.0012470965	0.00022732452
0.15410182	0.057889514	0.0010497355	0.00022732452
0.15429875	0.059800666	0.0010865318	0.00022732452
0.15449569	0.066401064	0.0012066722	0.00022731235
0.15469262	0.062210456	0.001128416	0.00022731235
0.15488955	0.054347824	0.00098308281	0.00022731809
0.1550865	0.05204216	0.00094136311	0.00022732452
0.15528344	0.055334657	0.0010039983	0.00022731235
0.15548037	0.046372972	0.00084075623	0.00022731235
0.1556773	0.051147539	0.00092289422	0.00022731235
0.15587424	0.058978584	0.0010673153	0.00022731235
0.15607117	0.046997391	0.00084589847	0.00022731235
0.1562681	0.056709528	0.0010262994	0.00022731235
0.15646504	0.047963206	0.000866124	0.00022732452
0.15666197	0.058862001	0.0010611464	0.00022731235
0.15685891	0.056881335	0.0010253099	0.00022731809
0.15705585	0.056769982	0.0010222323	0.00022731235
0.15725279	0.051080551	0.00092081458	0.00022731235
0.15744972	0.058842652	0.0010577425	0.00022731235
0.15764666	0.053710938	0.00096574373	0.00022731235
0.15784359	0.049180329	0.00088721095	0.00022731235
0.15804052	0.050583657	0.00090744742	0.00022731235
0.15823746	0.051808406	0.00093188079	0.00022731235
0.15843439	0.053122986	0.00095003366	0.00022731235
0.15863132	0.058690012	0.0010534024	0.00022730019
0.15882826	0.051465798	0.00092535553	0.00022731809
0.15902521	0.047511313	0.00085090648	0.00022730019
0.15922214	0.048590865	0.00087130629	0.00022730019
0.15941907	0.051314946	0.00091578183	0.00022731235
0.15961601	0.057623826	0.0010334228	0.00022730019
0.15981294	0.051835157	0.00092651526	0.00022730019
0.16000988	0.054088861	0.00096716778	0.00022730019
0.16020681	0.059581321	0.0010659327	0.00022730019
0.16040374	0.055466495	0.00098962046	0.00022730019
0.16060068	0.048033528	0.00085892808	0.00022730019
0.16079761	0.053269539	0.00094811007	0.00022730592
0.16099456	0.056140352	0.00099929108	0.00022730019
0.16119149	0.059221115	0.0010588733	0.00022730019
0.16138843	0.043811962	0.00078002905	0.00022730019
0.16158536	0.046779878	0.00083351647	0.00022730019
0.16178229	0.057197332	0.0010160988	0.00022728802
0.16197923	0.054881942	0.00097658497	0.00022728802
0.16217616	0.049586777	0.00088075182	0.00022728802
0.1623731	0.052531041	0.00093385135	0.00022728802
0.16257003	0.059028879	0.0010481487	0.00022728802
0.16276696	0.05527319	0.00098167569	0.00022730592
0.16296391	0.048284624	0.00085728301	0.00022728802
0.16316085	0.053780448	0.00095312932	0.00022730019
0.16335778	0.066118315	0.0011724838	0.00022728802
0.16355471	0.062086355	0.001098634	0.00022728802
0.16375165	0.059393156	0.0010635545	0.00022728802
0.16394858	0.050686724	0.00091316592	0.00022728802
0.16414551	0.055827621	0.0010053535	0.00022728802
0.16434245	0.047918044	0.00086764531	0.00022728802
0.16453938	0.055186171	0.0010025782	0.00022728802
0.16473632	0.053123955	0.00096702494	0.00022729376
0.16493326	0.053234503	0.00097347051	0.00022728802
0.1651302	0.046964105	0.00085640041	0.00022727586
0.16532713	0.047195621	0.00086904084	0.00022728802
0.16552407	0.050101556	0.00091817975	0.00022727586
0.165721	0.052881356	0.00096998096	0.00022728802
0.16591793	0.059388947	0.0010966272	0.00022727586
0.16611487	0.056222145	0.0010374279	0.00022727586
0.1663118	0.048263889	0.00089569838	0.00022728802
0.16650873	0.041251291	0.00076123519	0.00022728802
0.16670567	0.045814674	0.00084658479	0.00022728159
0.16690262	0.053838138	0.00099990121	0.00022727586
0.16709955	0.056426331	0.0010491712	0.00022727586
0.16729648	0.041081462	0.00076612568	0.00022727586
0.16749342	0.050835654	0.00094495923	0.00022727586
0.16769035	0.047918852	0.00089239655	0.00022727586
0.16788729	0.044491526	0.00083249953	0.00022727586
0.16808422	0.039290681	0.00072883343	0.00022727586
0.16828115	0.049946863	0.00093602575	0.00022727586
0.16847809	0.042852126	0.00079909142	0.00022726369
0.16867502	0.05372493	0.0010128201	0.00022728159
0.16887197	0.047534585	0.00089119672	0.00022727586
0.1690689	0.048022598	0.00089840189	0.00022726369
0.16926584	0.039445627	0.00073970278	0.00022727586
0.16946277	0.05448718	0.0010238249	0.00022727586
0.1696597	0.044228695	0.00083470403	0.00022726369
0.16985664	0.052369077	0.00098456664	0.00022726369
0.17005357	0.046802428	0.00088048313	0.00022727586
0.17025051	0.041322313	0.00077919348	0.00022726369
0.17044744	0.050914306	0.00096008903	0.00022726369
0.17064437	0.044684686	0.00084409455	0.00022726943
0.17084132	0.039236862	0.00074039213	0.00022727586
0.17103826	0.045537341	0.00086510117	0.00022726369
0.17123519	0.041259501	0.00078101887	0.00022726369
0.17143212	0.050054014	0.00094594696	0.00022726369
0.17162906	0.047774158	0.00090506254	0.00022726369
0.17182599	0.048357993	0.00091450725	0.00022726369
0.17202292	0.047496319	0.00090750353	0.00022726369
0.17221986	0.048638839	0.00092243456	0.00022726369
0.17241679	0.047393367	0.00090077886	0.00022726369
0.17261373	0.04848706	0.0009217888	0.00022725726
0.17281067	0.046596289	0.00088512345	0.00022726369
0.17300761	0.051357299	0.00097990443	0.00022726369
0.17320454	0.052113704	0.00099096505	0.00022725153
0.17340147	0.048744462	0.00093272445	0.00022725153
0.17359841	0.054183561	0.0010360869	0.00022725153
0.17379534	0.051413883	0.00098117103	0.00022726369
0.17399228	0.04180418	0.00079579389	0.00022726369
0.17418921	0.045454547	0.00086623256	0.00022725153
0.17438614	0.051358391	0.00098668912	0.00022725153
0.17458308	0.049041297	0.00093796174	0.00022725726
0.17478003	0.047389857	0.00090805738	0.00022725153
0.17497696	0.051756006	0.00099093106	0.00022725153
0.17517389	0.042615723	0.000813074	0.00022725153
0.17537083	0.055826154	0.0010764328	0.00022723936
0.17556776	0.04283604	0.00081944966	0.00022723936
0.17576469	0.045827124	0.00088077685	0.00022723936
0.17596163	0.050448429	0.00097119628	0.00022725153
0.17615856	0.042671613	0.00081817259	0.00022725153
0.1763555	0.048008934	0.0009221806	0.00022725153
0.17655243	0.055679288	0.0010684003	0.00022724509
0.17674938	0.040195342	0.00077480555	0.00022723936
0.17694631	0.056242969	0.001084765	0.00022723936
0.17714325	0.053123832	0.0010232164	0.00022725153
0.17734018	0.055576418	0.0010728887	0.00022723936
0.17753711	0.045741912	0.00087791093	0.00022723936
0.17773405	0.055597294	0.0010736416	0.00022723936
0.17793098	0.053962264	0.0010438546	0.00022723936
0.17812791	0.050281424	0.00096994179	0.00022723936
0.17832485	0.046634074	0.00090023136	0.00022723936
0.17852178	0.056454647	0.0010911888	0.00022724509
0.17871873	0.046055116	0.0008908931	0.00022723936
0.17891566	0.050413843	0.00097377639	0.00022723936
0.1791126	0.051378921	0.00099417148	0.00022722721
0.17930953	0.053605136	0.0010374145	0.00022723936
0.17950647	0.061031085	0.0011840585	0.00022723936
0.1797034	0.04952741	0.00095872401	0.00022723936
0.17990033	0.041493777	0.00080190558	0.00022723936
0.18009727	0.04904943	0.00095244142	0.00022722721
0.1802942	0.046194624	0.00089464121	0.00022722721
0.18049113	0.050516646	0.00098394277	0.00022723294
0.18068808	0.056460779	0.0010948423	0.00022722721
0.18088502	0.054945055	0.0010652595	0.00022722721
0.18108195	0.046875	0.00091073691	0.00022722721
0.18127888	0.048650704	0.00094413431	0.00022722721
0.18147582	0.043893129	0.00085231976	0.00022722721
0.18167275	0.037936267	0.00073451182	0.00022722721
0.18186969	0.04137931	0.00080579642	0.00022722721
0.18206662	0.043711655	0.00085194426	0.00022722721
0.18226355	0.043149129	0.00083522493	0.00022721505
0.18246049	0.050249327	0.00097999512	0.00022723294
0.18265744	0.055364642	0.0010777967	0.00022721505
0.18285437	0.044196773	0.00086216885	0.00022722721
0.1830513	0.043863025	0.00085610774	0.00022722721
0.18324824	0.046095237	0.00089557655	0.00022721505
0.18344517	0.044965412	0.00087699277	0.00022721505
0.1836421	0.042944785	0.00083678286	0.00022721505
0.18383904	0.042692307	0.00083296234	0.00022721505
0.18403597	0.044581093	0.00086990622	0.00022721505
0.18423291	0.042323969	0.00082568114	0.00022721505
0.18442984	0.045718715	0.00089580973	0.00022722078
0.18462679	0.050613496	0.00098677422	0.00022721505
0.18482372	0.043578867	0.00085163501	0.00022721505
0.18502066	0.051114526	0.00099767419	0.00022721505
0.18521759	0.047177106	0.0009227735	0.00022721505
0.18541452	0.051897753	0.0010165193	0.00022721505
0.18561146	0.050134979	0.0009803056	0.00022721505
0.18580839	0.04934464	0.00096387404	0.00022721505
0.18600532	0.049941927	0.00097772758	0.00022720288
0.18620226	0.060923554	0.0011950178	0.00022721505
0.18639919	0.051897753	0.0010166907	0.00022722078
0.18659614	0.046511628	0.00091141131	0.00022720288
0.18679307	0.049141966	0.00096645678	0.00022720288
0.18699001	0.058755316	0.0011505906	0.00022720288
0.18718694	0.055231426	0.0010847702	0.00022720288
0.18738388	0.047235023	0.00092118926	0.00022720288
0.18758081	0.048254218	0.00095154921	0.00022721505
0.18777774	0.046249513	0.00090727047	0.00022720288
0.18797468	0.043224297	0.0008488606	0.00022720288
0.18817161	0.045985971	0.00090348051	0.00022719071
0.18836854	0.046826627	0.00091691542	0.00022720861
0.18856549	0.050354052	0.00099440117	0.00022719071
0.18876243	0.05916699	0.0011634668	0.00022720288
0.18895936	0.062768035	0.0012352106	0.00022720288
0.18915629	0.05119187	0.0010078786	0.00022719071
0.18935323	0.054275673	0.0010681826	0.00022719071
0.18955016	0.045115732	0.00088913378	0.00022720288
0.1897471	0.04508356	0.00088465645	0.00022719071
0.18994403	0.04773083	0.00093983446	0.00022720288
0.19014096	0.042930286	0.00084758707	0.00022719071
0.1903379	0.042818218	0.00084053929	0.00022719646
0.19053484	0.044505712	0.00087860401	0.00022719071
0.19073178	0.050623052	0.00099495437	0.00022719071
0.19092871	0.049567271	0.00097809848	0.00022719071
0.19112565	0.051383398	0.0010168499	0.00022719071
0.19132258	0.042088855	0.00082632713	0.00022719071
0.19151951	0.045687277	0.00090208143	0.00022719071
0.19171645	0.043205027	0.00085174287	0.00022719071
0.19191338	0.04923198	0.00097225566	0.00022717856
0.19211031	0.041568626	0.00081886083	0.00022719071
0.19230725	0.045543779	0.00089844089	0.00022719646
0.1925042	0.041286226	0.00081811449	0.00022719071
0.19270113	0.040912665	0.00080726109	0.00022719071
0.19289806	0.034659315	0.00068378914	0.00022719071
0.193095	0.04151978	0.00081763836	0.00022717856
0.19329193	0.054783646	0.0010868083	0.00022719071
0.19348887	0.047072783	0.00093160616	0.00022717856
0.1936858	0.040503342	0.00079875247	0.00022717856
0.19388273	0.04222573	0.00083410798	0.00022717856
0.19407967	0.045490507	0.00090003078	0.00022717856
0.1942766	0.041450776	0.00082285714	0.0002271843
0.19447355	0.045383412	0.00089329685	0.00022717856
0.19467048	0.047166072	0.00093491038	0.00022717856
0.19486742	0.050632913	0.0010026741	0.0002271664
0.19506435	0.045292016	0.00089821836	0.0002271664
0.19526128	0.048264857	0.00095935469	0.0002271664
0.19545822	0.05366236	0.001057577	0.0002271664
0.19565515	0.048858631	0.00097341114	0.0002271664
0.19585209	0.042857144	0.00084927952	0.0002271664
0.19604902	0.055423595	0.0010982901	0.0002271664
0.19624595	0.041434262	0.00082274992	0.00022717213
0.1964429	0.045705281	0.00090275035	0.00022717856
0.19663984	0.03926282	0.00078161072	0.0002271664
0.19683677	0.04267088	0.00084360188	0.0002271664
0.1970337	0.042731628	0.00084944483	0.0002271664
0.19723064	0.036154151	0.00071610842	0.0002271664
0.19742757	0.038919777	0.00077146949	0.0002271664
0.1976245	0.039743073	0.0007919331	0.00022715423
0.19782144	0.044338875	0.00087772176	0.0002271664
0.19801837	0.044728436	0.00088917278	0.0002271664
0.19821531	0.040287197	0.00080007093	0.00022715998
0.19841225	0.045382164	0.00090090191	0.0002271664
0.19860919	0.042834267	0.0008523569	0.00022715423
0.19880612	0.045580659	0.00090298394	0.00022715423
0.19900306	0.045436267	0.0009067374	0.00022715423
0.19919999	0.052652571	0.0010468891	0.00022715423
0.19939692	0.046215139	0.00091762445	0.00022715423
0.19959386	0.038709678	0.00077230268	0.0002271664
0.19979079	0.041401275	0.00082184421	0.00022715423
0.19998772	0.040881764	0.00081404176	0.00022715423
0.20018466	0.039473683	0.00078348914	0.00022715998
0.20038161	0.042219542	0.00084210566	0.00022715423
0.20057854	0.035614245	0.00070774078	0.00022715423
0.20077547	0.0407511	0.00081006286	0.00022715423
0.20097241	0.036246475	0.00072295807	0.00022715423
0.20116934	0.045527156	0.00090529374	0.00022715423
0.20136628	0.045070421	0.00089960877	0.00022714208
0.20156321	0.04443555	0.00088435959	0.00022715423
0.20176014	0.043933898	0.0008774114	0.00022714208
0.20195708	0.034027223	0.00067598693	0.00022715423
0.20215401	0.035298835	0.0007022529	0.00022715998
0.20235096	0.042287555	0.00084406417	0.00022714208
0.20254789	0.039615847	0.00078813283	0.00022714208
0.20274483	0.038945232	0.00077970646	0.00022714208
0.20294176	0.036414567	0.00072403753	0.00022714208
0.20313869	0.037995148	0.00075935631	0.00022714208
0.20333563	0.03919192	0.00078311632	0.00022714208
0.20353256	0.045798488	0.00090911804	0.00022712992
0.2037295	0.040617384	0.00081374933	0.00022712992
0.20392643	0.048858631	0.00097294891	0.00022714208
0.20412336	0.054788962	0.0010989703	0.00022714782
0.20432031	0.041515518	0.00082904205	0.00022714208
0.20451725	0.040898155	0.00081405631	0.00022714208
0.20471418	0.037367992	0.00074870588	0.00022712992
0.20491111	0.033986405	0.0006754339	0.00022714208
0.20510805	0.045509957	0.00091280224	0.00022712992
0.20530498	0.040791601	0.00081506465	0.00022712992
0.20550191	0.035728622	0.00071142637	0.00022712992
0.20569885	0.04612245	0.00092713797	0.00022712992
0.20589578	0.054530874	0.0010872948	0.00022712992
0.20609272	0.051731162	0.0010392453	0.00022713565
0.20628966	0.055219669	0.0011031218	0.00022712992
0.2064866	0.038539555	0.00077117921	0.00022711777
0.20668353	0.034146342	0.0006838963	0.00022712992
0.20688047	0.04109589	0.0008202871	0.00022712992
0.2070774	0.046191249	0.0009253202	0.00022711777
0.20727433	0.039065648	0.00077958568	0.00022711777
0.20747127	0.041547861	0.00083393935	0.00022711777
0.2076682	0.04630382	0.0009287775	0.00022712992
0.20786513	0.050525464	0.001011024	0.00022712992
0.20806207	0.042752445	0.00085802312	0.0002271235
0.20825902	0.048849415	0.00097690581	0.00022711777
0.20845595	0.059494704	0.0011961567	0.00022711777
0.20865288	0.04161616	0.00083150365	0.00022711777
0.20884982	0.043282971	0.00086941646	0.00022711777
0.20904675	0.03295362	0.00065998401	0.00022711777
0.20924369	0.029614605	0.00059171318	0.0002271056
0.20944062	0.034021873	0.00068035524	0.00022711777
0.20963755	0.040129714	0.00080360199	0.00022711777
0.20983449	0.03618421	0.00072884263	0.00022711777
0.21003142	0.032467533	0.00064949068	0.00022711133
0.21022837	0.034201954	0.00068537088	0.00022711777
0.2104253	0.037489813	0.00075219048	0.00022711777
0.21062224	0.033051189	0.00065892906	0.0002271056
0.21081917	0.037494849	0.00075622147	0.0002271056
0.2110161	0.04089069	0.00081836124	0.0002271056
0.21121304	0.034201954	0.00068576494	0.0002271056
0.21140997	0.037097432	0.00074450183	0.0002271056
0.2116069	0.046160132	0.00092834787	0.0002271056
0.21180384	0.037249282	0.0007490784	0.0002271056
0.21200077	0.050101008	0.0010022148	0.00022711133
0.21219772	0.041152265	0.00082987844	0.00022709343
0.21239465	0.038619556	0.00077770842	0.0002271056
0.21259159	0.051584076	0.0010346213	0.0002271056
0.21278852	0.048979592	0.00098491623	0.0002271056
0.21298546	0.048701297	0.00097571069	0.00022709343
0.21318239	0.050330032	0.0010177877	0.00022709343
0.21337932	0.045454547	0.00091120892	0.00022709343
0.21357626	0.057621576	0.0011598852	0.0002271056
0.21377319	0.047049113	0.00095055508	0.0002271056
0.21397012	0.043956045	0.00088185124	0.00022709918
0.21416707	0.040866368	0.00082141045	0.00022709343
0.21436401	0.041581735	0.00083487848	0.00022709343
0.21456094	0.04396056	0.00088651275	0.00022709343
0.21475787	0.03858785	0.00077692885	0.00022708128
0.21495481	0.036371067	0.0007300491	0.00022709343
0.21515174	0.03809914	0.00076650869	0.00022709343
0.21534868	0.045845274	0.00092261308	0.00022708128
0.21554561	0.034993824	0.00070519641	0.00022709343
0.21574254	0.042892158	0.00086223311	0.00022708128
0.21593948	0.04238683	0.0008549554	0.00022709918
0.21613643	0.04720854	0.00095172145	0.00022708128
0.21633336	0.035670355	0.00071748917	0.00022708128
0.21653029	0.039030403	0.00078613742	0.00022708128
0.21672723	0.033455733	0.00067116675	0.00022709343
0.21692416	0.041649483	0.00084133225	0.00022708128
0.21712109	0.037782341	0.00076101278	0.00022708128
0.21731803	0.039014373	0.00078609399	0.00022708128
0.21751496	0.037052285	0.00074673619	0.00022708128
0.2177119	0.034623217	0.00069421675	0.00022708128
0.21790883	0.044453677	0.00090099539	0.00022708702
0.21810578	0.042075165	0.00084538059	0.00022708128
0.21830271	0.038842976	0.00078464777	0.00022708128
0.21849965	0.046502057	0.00093853485	0.00022706912
0.21869658	0.062602289	0.0012611186	0.00022708128
0.21889351	0.061774462	0.0012520934	0.00022706912
0.21909045	0.063088901	0.001272071	0.00022706912
0.21928738	0.053239785	0.0010769516	0.00022706912
0.21948431	0.044554457	0.00090070307	0.00022706912
0.21968125	0.049732842	0.0010035295	0.00022706912
0.21987818	0.046636403	0.0009428293	0.00022707487
0.22007513	0.051166598	0.0010306643	0.00022706912
0.22027206	0.040647034	0.00082287873	0.00022706912
0.220469	0.040640395	0.00081916153	0.00022706912
0.22066593	0.038493376	0.00077825616	0.00022705697
0.22086287	0.043639358	0.00088065374	0.00022705697
0.2210598	0.046559539	0.00094035018	0.00022705697
0.22125673	0.040959869	0.00082841341	0.00022705697
0.22145367	0.034710743	0.0007009246	0.00022705697
0.2216506	0.0392562	0.00079305912	0.00022706912
0.22184753	0.036625516	0.00073857466	0.00022707487
0.22204448	0.032780085	0.00066265912	0.00022705697
0.22224142	0.038778879	0.00078252662	0.00022705697
0.22243835	0.037525773	0.00075706467	0.00022705697
0.22263528	0.031094527	0.00062800798	0.00022705697
0.22283222	0.025493421	0.00051191682	0.00022704482
0.22302915	0.032889258	0.00066597282	0.00022705697
0.22322609	0.032631144	0.00065825443	0.00022704482
0.22342302	0.040279489	0.0008118269	0.00022704482
0.22361995	0.03611457	0.00073132681	0.00022705697
0.22381689	0.046655655	0.00094341335	0.0002270627
0.22401384	0.031315241	0.0006350514	0.00022704482
0.22421077	0.047736626	0.0009637507	0.00022704482
0.2244077	0.043478262	0.00087988813	0.00022704482
0.22460464	0.038285475	0.00077663804	0.00022704482
0.22480157	0.036960986	0.00074434991	0.00022704482
0.2249985	0.041090146	0.00083646126	0.00022704482
0.22519544	0.045901638	0.00092416629	0.00022704482
0.22539237	0.033264033	0.00067354023	0.00022704482
0.22558931	0.046424091	0.00094446895	0.00022704482
0.22578624	0.036371067	0.00073032966	0.00022703838
0.22598319	0.051645149	0.0010490475	0.00022703265
0.22618012	0.03555188	0.0007181876	0.00022704482
0.22637706	0.041021347	0.00083409721	0.00022704482
0.22657399	0.031910487	0.00064518373	0.00022703265
0.22677092	0.038971808	0.000788284	0.00022703265
0.22696786	0.037313432	0.00075436226	0.00022703265
0.22716479	0.031884059	0.00064438232	0.00022704482
0.22736172	0.03554998	0.00072227954	0.00022703265
0.22755866	0.03305785	0.00066707522	0.00022703265
0.22775559	0.033430841	0.00067839841	0.00022703265
0.22795253	0.04145937	0.00083952647	0.00022703838
0.22814947	0.034053154	0.0006892269	0.00022703265
0.22834641	0.033996683	0.00068740919	0.00022703265
0.22854334	0.037806399	0.00076548022	0.0002270205
0.22874027	0.032786883	0.00066735665	0.00022703265
0.22893721	0.031366076	0.0006323579	0.00022703265
0.22913414	0.04450915	0.0009030815	0.0002270205
0.22933108	0.036960132	0.00074852939	0.0002270205
0.22952801	0.042934556	0.00087158277	0.0002270205
0.22972494	0.034568928	0.00070044358	0.0002270205
0.22992188	0.038971808	0.00078900717	0.00022703838
0.23011883	0.042265426	0.00086395699	0.0002270205
0.23031576	0.035094962	0.00070746045	0.0002270205
0.23051269	0.038701624	0.00078421336	0.0002270205
0.23070963	0.027916666	0.00056518393	0.0002270205
0.23090656	0.050580431	0.001025046	0.00022700834
0.23110349	0.042365771	0.00086287555	0.00022700834
0.23130043	0.046725072	0.00094960816	0.0002270205
0.23149736	0.033693843	0.00068224338	0.0002270205
0.2316943	0.039682541	0.00080592494	0.0002270205
0.23189123	0.042341221	0.00085802603	0.00022701408
0.23208818	0.027242247	0.00055285264	0.00022700834
0.23228511	0.038301416	0.0007762867	0.00022700834
0.23248205	0.042206436	0.00085809664	0.00022700834
0.23267898	0.035190616	0.00071540929	0.00022700834
0.23287591	0.046965919	0.00095238851	0.00022700834
0.23307285	0.053952321	0.00109898	0.00022700834
0.23326978	0.036697246	0.00074469275	0.00022700834
0.23346671	0.032554258	0.00066015561	0.00022700834
0.23366365	0.04079058	0.00083107676	0.00022700834
0.23386058	0.037562605	0.00076174119	0.00022701408
0.23405753	0.038810901	0.00078403525	0.00022699618
0.23425446	0.038283549	0.00078068767	0.00022700834
0.2344514	0.050755035	0.0010344177	0.00022699618
0.23464833	0.045131635	0.00091786671	0.00022699618
0.23484527	0.04138796	0.00084152317	0.00022700834
0.2350422	0.039297659	0.00079819252	0.00022700834
0.23523913	0.032339353	0.0006580106	0.00022699618
0.23543607	0.042880934	0.00086986733	0.00022699618
0.235633	0.052675586	0.0010716108	0.00022699618
0.23582993	0.031001257	0.00062872568	0.00022700192
0.23602688	0.033263158	0.00067714276	0.00022698403
0.23622382	0.033764068	0.00068384811	0.00022699618
0.23642075	0.03881469	0.0007880223	0.00022699618
0.23661768	0.035624474	0.00072434812	0.00022698403
0.23681462	0.04040404	0.00082347699	0.00022698403
0.23701155	0.030505642	0.00061897573	0.00022699618
0.23720849	0.032163743	0.00065254566	0.00022698403
0.23740542	0.028127624	0.00057173276	0.00022699618
0.23760235	0.034800839	0.00070760906	0.00022698403
0.23779929	0.030239396	0.00061528676	0.00022698977
0.23799624	0.028380634	0.0005745035	0.00022698403
0.23819317	0.031946197	0.00064998458	0.00022698403
0.2383901	0.031486146	0.00064037362	0.00022698403
0.23858704	0.033933807	0.00068933232	0.00022698403
0.23878397	0.035624474	0.00072434812	0.00022698403
0.2389809	0.03397651	0.00069063407	0.00022697187
0.23917784	0.035729297	0.0007278542	0.00022697187
0.23937477	0.033698399	0.00068601529	0.00022698403
0.23957171	0.042713568	0.00086945505	0.00022697187
0.23976864	0.038365304	0.00077878922	0.00022697762
0.23996559	0.043789472	0.0008933965	0.00022697187
0.24016252	0.035956006	0.00073438138	0.00022697187
0.24035946	0.041329358	0.00084759906	0.00022697187
0.24055639	0.03465765	0.0007075562	0.00022697187
0.24075332	0.033219762	0.00068039133	0.00022697187
0.24095026	0.037752036	0.00077672914	0.00022697187
0.24114719	0.045957446	0.0009429325	0.00022697187
0.24134412	0.039400429	0.0008106209	0.00022697187
0.24154106	0.034943916	0.00072067819	0.00022697187
0.24173799	0.033664223	0.00069467281	0.00022696547
0.24193494	0.038194444	0.00079042447	0.00022697187
0.24213187	0.036144577	0.00074405776	0.00022695972
0.24232881	0.030170528	0.00062563154	0.00022697187
0.24252574	0.041976389	0.00087268907	0.00022695972
0.24272268	0.028384279	0.00058798422	0.00022695972
0.24291961	0.033465434	0.00069739477	0.00022695972
0.24311654	0.036553524	0.0007574851	0.00022695972
0.24331348	0.031541537	0.00065945706	0.00022695972
0.24351041	0.032627866	0.00068024785	0.00022695972
0.24370734	0.03697183	0.00077030528	0.00022696547
0.24390429	0.037811387	0.00079207099	0.00022695972
0.24410123	0.029964222	0.00062892749	0.00022695972
0.24429816	0.03507993	0.00073313934	0.00022694757
0.24449509	0.034262221	0.0007262617	0.00022694757
0.24469203	0.031336404	0.00066759274	0.00022695972
0.24488896	0.033739455	0.00072487898	0.00022694757
0.2450859	0.031029619	0.00066769519	0.00022694757
0.24528283	0.029342167	0.00063280447	0.00022694757
0.24547976	0.028612303	0.00061938696	0.00022694757
0.2456767	0.031280078	0.00067908864	0.0002269533
0.24587364	0.026936026	0.00058483501	0.00022694757
0.24607058	0.037396796	0.00081799942	0.0002269354
0.24626751	0.034883723	0.00076117564	0.00022694757
0.24646445	0.033973411	0.0007469533	0.00022694757
0.24666138	0.03194103	0.00070191443	0.00022694757
0.24685831	0.036013812	0.00079370273	0.0002269354
0.24705525	0.034277197	0.00075764395	0.0002269354
0.24725218	0.039940089	0.00088634272	0.0002269354
0.24744911	0.027149322	0.00060239871	0.00022694757
0.24764605	0.03748126	0.00083159981	0.00022694115
0.247843	0.039778449	0.00088658271	0.0002269354
0.24803993	0.048057258	0.0010807222	0.0002269354
0.24823686	0.051255766	0.0011536124	0.0002269354
0.2484338	0.034623217	0.00077484187	0.00022692325
0.24863073	0.040637862	0.00091517658	0.0002269354
0.24882767	0.034465022	0.00077532447	0.00022692325
0.2490246	0.028970512	0.00065297855	0.00022692325
0.24922153	0.036050156	0.00081719091	0.00022692325
0.24941847	0.03840166	0.00086796848	0.00022692325
0.2496154	0.046916183	0.0010704376	0.000226929
0.24981235	0.031151002	0.00070946466	0.00022692965
0.25000927	0.036553524	0.00082781404	0.00022692325
0.2502062	0.039999999	0.00091650221	0.0002269354
0.25040314	0.03125	0.0007120152	0.0002269111
0.25060007	0.038399134	0.00088586053	0.0002269226
0.25079703	0.028846154	0.00065952615	0.0002269111
0.25099397	0.04083826	0.00094000378	0.0002269111
0.2511909	0.043407489	0.0010040971	0.0002269111
0.25138783	0.043080237	0.00099323352	0.0002269111
0.25158477	0.03814714	0.00088364509	0.0002269111
0.2517817	0.039847162	0.00092394155	0.0002269111
0.25197864	0.039452054	0.0009166004	0.0002269111
0.25217557	0.038781162	0.00090614602	0.0002269111
0.2523725	0.029637761	0.00068782771	0.0002269111
0.25256944	0.038910504	0.00090992876	0.0002269111
0.25276637	0.04164353	0.00097392726	0.0002269111
0.2529633	0.039084312	0.0009164135	0.0002268868
0.25316024	0.037162162	0.00087495142	0.0002269111
0.25335717	0.028425241	0.00066948612	0.0002269111
0.25355411	0.035735209	0.00085618213	0.0002269111
0.25375104	0.025270758	0.00061156525	0.0002269111
0.25394797	0.028381642	0.00068859174	0.0002268868
0.25414491	0.023955774	0.00058624067	0.0002269111
0.25434184	0.02909551	0.00072362716	0.0002269111
0.25453877	0.025390625	0.00063797453	0.0002269226
0.25473574	0.036937542	0.00094817701	0.0002268868
0.25493267	0.034059945	0.00087924412	0.0002269111
0.25512961	0.037552156	0.00098071736	0.0002269111
0.25532654	0.039034776	0.0010300855	0.0002269111
0.25552347	0.035688274	0.0009527994	0.0002268868
0.25572041	0.027272727	0.00073985057	0.0002269111
0.25591734	0.03160454	0.00088843855	0.0002269111
0.25611427	0.030094583	0.00086721336	0.0002268868
0.25631121	0.038356163	0.0011430958	0.0002268868
0.25650814	0.032987747	0.00099526893	0.0002268868
0.25670508	0.040658277	0.0012468429	0.0002268868
0.25690201	0.033826638	0.0010808649	0.0002268868
0.25709894	0.03815937	0.0012579061	0.0002268868
0.25729588	0.040141676	0.0013547962	0.0002268868
0.25749281	0.045563549	0.0015533346	0.0002268868
0.25768974	0.047798742	0.0016702699	0.0002268868
0.25788668	0.046571799	0.001644823	0.0002268868
0.25808361	0.037383176	0.001329748	0.0002268868
0.25828055	0.041039672	0.0014882573	0.0002268868
0.25847748	0.048640914	0.0018089527	0.00022689829
0.25867444	0.032023288	0.0011919558	0.00022686248
0.25887138	0.047400612	0.0018208373	0.00022686248
0.25906831	0.043209877	0.0016637258	0.00022686248
0.25926524	0.041204438	0.0016072664	0.0002268868
0.25946218	0.046822742	0.0018793051	0.00022686248
0.25965911	0.039049234	0.0015718507	0.0002268868
0.25985605	0.043327555	0.0017540378	0.0002268868
0.26005298	0.048611112	0.0019801331	0.00022686248
0.26024991	0.06818182	0.0028107946	0.00022686248
0.26044685	0.048214287	0.0019982744	0.0002268868
0.26064378	0.062388591	0.0025962789	0.00022686248
0.26084071	0.048561152	0.0020198901	0.00022686248
0.26103765	0.034990791	0.0014628965	0.00022686248
0.26123458	0.035185184	0.0014707922	0.00022686248
0.26143152	0.018867925	0.00077824714	0.0002268868
0.26162845	0.035120148	0.0014710211	0.00022686248
0.26182538	0.030592734	0.0012964886	0.00022686248
0.26202232	0.037181996	0.0015931341	0.00022686248
0.26221925	0.037698414	0.0016216425	0.00022686248
0.26241618	0.028680688	0.0012127539	0.00022684968
0.26261315	0.045634922	0.0019821539	0.00022683818
0.26281008	0.040650405	0.0017786401	0.00022686248
0.26300701	0.032854211	0.0014429741	0.00022686248
0.26320395	0.046277665	0.0020322544	0.00022683818
0.26340088	0.035940804	0.0016049161	0.00022686248
0.26359782	0.031380754	0.0013814799	0.00022683818
0.26379475	0.021367522	0.00093803054	0.00022686248
0.26399168	0.036324788	0.0016247166	0.00022683818
0.26418862	0.026086956	0.001156931	0.00022683818
0.26438555	0.017897092	0.00079271867	0.00022683818
0.26458248	0.020594966	0.00092991139	0.00022683818
0.26477942	0.031390134	0.0014339065	0.00022683818
0.26497635	0.023310022	0.0010689123	0.00022686248
0.26517329	0.011655011	0.0005038901	0.00022683818
0.26537022	0.036674816	0.0017541078	0.00022683818
0.26556715	0.036057692	0.0017099848	0.00022683818
0.26576409	0.027227722	0.0012931903	0.00022683818
0.26596102	0.030303031	0.0014486982	0.00022683818
0.26615795	0.031088082	0.0015169431	0.00022683818
0.26635489	0.010230179	0.000448623	0.00022684968
0.26655185	0.018567638	0.00088652171	0.00022681388
0.26674879	0.035616439	0.0017820373	0.00022683818
0.26694572	0.05135135	0.0026019453	0.00022683818
0.26714265	0.06849315	0.0035174834	0.00022681388
0.26733959	0.059322033	0.0030813001	0.00022681388
0.26753652	0.025714286	0.0012977334	0.00022681388
0.26773345	0.042296074	0.0022436273	0.00022683818
0.26793039	0.044776119	0.0023669638	0.00022683818
0.26812732	0.041420117	0.0021622435	0.00022683818
0.26832426	0.025	0.0013093287	0.00022683818
0.26852119	0.012698413	0.00062060496	0.00022683818
0.26871812	0.01607717	0.00081672106	0.00022683818
0.26891506	0.022508038	0.0011835413	0.00022681388
0.26911199	0.033670034	0.0018566026	0.00022683818
0.26930892	0.030201342	0.0016522347	0.00022683818
0.26950586	0.048442908	0.0027355345	0.00022683818
0.26970279	0.013745705	0.00069903454	0.00022681388
0.26989973	0.018115941	0.00097710115	0.00022681388
0.27009666	0.02247191	0.0012577912	0.00022681388
0.27029359	0.019083969	0.0010565583	0.00022684968
0.27049056	0.014652015	0.00076938467	0.00022681388
0.27068749	0	0	0.00022681388
0.27088442	0.0040160641	0	0.00022681388
0.27108136	0	0	0.00022681388
0.27127829	0.0084033618	0.00038597916	0.00022681388
0.27147523	0	0	0.00022681388
0.27167216	0.011363637	0	0.00022681388
0.27186909	0	0	0.00022681388
0.27206603	0	0	0.00022681388
0.27226296	0	0	0.00022681388
