#   DataFileName=PAL30_140C_WAXS_08172017.tif
#   DataFileType=.tif
#   
#   DataFilePath=E:DATA:PAL30_08262017:
#   
#   Processed on=Wed, Jan 16, 2019,2:43:01 AM
#   Units=Arbitrary
#   SampleThickness=1
#   SampleTransmission=1
#   CorrectionFactor=1
#   SampleMeasurementTime=1
#   EmptyMeasurementTime=1
#   BackgroundMeasTime=1
#   SampleI0=1
#   EmptyI0=1
#   Nika_SampleToDetectorDistacne=1552.1
#   Nika_Wavelength=1.54
#   Nika_XrayEnergy=8.0509
#   Nika_PixelSizeX=0.075
#   Nika_PixelSizeY=0.075
#   Nika_HorizontalTilt=0
#   Nika_VerticalTilt=0
#   Nika_BeamCenterX=1540.3
#   Nika_BeamCenterY=830.17
#   Nika_BeamSizeX=0
#   Nika_BeamCenterY=830.17
#   CalibrationFormula=1*((Sa2D))
#   CurrentMaskFileName=PAL30_30C_WAXS_mask.hdf
#   QvectorMaxNumPnts=1
#   QvectorNumberPoints=1383
#   CircularAverage=1
#   PolarizationCorrection=None
#   UncertainityCalculationMethod=OldNikaMethod

0.0060065244	6	4.1833	0.00022756745
0.00620346	4	0.79204375	0.00022756765
0.0064003952	3.2807016	0.43252695	0.00022756765
0.0065973303	3.5250001	0.39299139	0.00022756765
0.0067942655	5.2755103	0.52713948	0.00022756765
0.0069912006	7.5607476	0.7111488	0.00022756745
0.0071881362	8.6885242	0.76384318	0.00022756727
0.0073850714	9.0916033	0.77609807	0.00022756727
0.0075820065	9.3241377	0.75981271	0.00022756727
0.0077789417	8.4149656	0.68244314	0.00022756745
0.0079758773	7.2468352	0.5676226	0.00022756746
0.0081728119	6.6073618	0.50888479	0.00022756707
0.0083697475	5.8820224	0.43415296	0.00022756671
0.0085666822	4.9326425	0.34980649	0.00022756783
0.0087636178	4.548718	0.320932	0.00022756783
0.0089605534	3.8957345	0.26424411	0.00022756746
0.0091574881	3.606987	0.23525462	0.00022756707
0.0093544237	3.0280001	0.18925956	0.00022756671
0.0095513584	2.8859315	0.17611477	0.00022756707
0.009748294	2.6397059	0.15814295	0.00022756707
0.0099452296	2.4115524	0.14331391	0.00022756595
0.010142164	2.2589929	0.13407144	0.00022756707
0.0103391	1.93266	0.11090341	0.00022756671
0.010536035	1.7966101	0.10349686	0.00022756707
0.01073297	1.8125	0.10293832	0.00022756783
0.010929906	1.6848874	0.094638914	0.00022756746
0.01112684	1.5878594	0.088853598	0.00022756783
0.011323776	1.3855422	0.075245313	0.00022756746
0.011520711	1.2896341	0.070505798	0.00022756707
0.011717646	1.204142	0.064889327	0.00022756707
0.011914582	1.0818714	0.058029342	0.00022756746
0.012111517	1.110145	0.059296031	0.00022756783
0.012308452	1.0164835	0.052777924	0.00022756671
0.012505387	1.0367231	0.054606993	0.00022756783
0.012702323	0.98677248	0.050326373	0.00022756783
0.012899258	0.87667561	0.045016337	0.00022756671
0.013096193	0.81675392	0.041538551	0.00022756707
0.013293128	0.73401535	0.036786634	0.00022756671
0.013490063	0.71649486	0.036063444	0.00022756707
0.013686999	0.71323532	0.035067663	0.00022756707
0.013883934	0.69586372	0.034119591	0.00022756671
0.014080869	0.68660289	0.033367604	0.00022756707
0.014277805	0.56941175	0.027414542	0.00022756671
0.014474739	0.56973994	0.027515177	0.0002275663
0.014671675	0.5349887	0.025247835	0.00022756707
0.014868611	0.47499999	0.022491006	0.00022756671
0.015065545	0.49230769	0.022929959	0.0002275663
0.015262481	0.48497853	0.022278424	0.00022756671
0.015459416	0.42197803	0.019658823	0.00022756595
0.01565635	0.42004263	0.019255461	0.00022756707
0.015853286	0.40552017	0.018572234	0.00022756554
0.016050221	0.41649485	0.018806832	0.00022756707
0.016247157	0.41295546	0.018460868	0.00022756707
0.016444093	0.34	0.015097279	0.00022756483
0.016641026	0.32128513	0.014278133	0.00022756707
0.016837962	0.33066133	0.014690754	0.00022756707
0.017034898	0.28599221	0.012530962	0.00022756554
0.017231833	0.28107074	0.012200662	0.00022756554
0.017428769	0.28273246	0.01224107	0.00022756483
0.017625703	0.27289718	0.011724903	0.00022756554
0.017822638	0.28864059	0.012361844	0.00022756554
0.018019574	0.27205881	0.011594933	0.00022756554
0.018216509	0.32116789	0.013652563	0.00022756554
0.018413445	0.27191412	0.011431551	0.00022756483
0.018610379	0.22438163	0.0093772672	0.00022756554
0.018807314	0.22862129	0.0094867265	0.00022756554
0.01900425	0.2322357	0.0096078031	0.00022756554
0.019201186	0.25	0.010399827	0.00022756554
0.019398121	0.21943049	0.0089333225	0.00022756483
0.019595055	0.18983051	0.0077705304	0.00022756554
0.019791991	0.24132231	0.0097629046	0.00022756554
0.019988926	0.18512397	0.0074698748	0.00022756554
0.020185862	0.21895425	0.0087985443	0.00022756554
0.020382797	0.19585988	0.0077666324	0.00022756483
0.020579731	0.18608414	0.0074428758	0.00022756403
0.020776667	0.17398119	0.006845383	0.00022756403
0.020973602	0.20031299	0.00788581	0.00022756554
0.021170538	0.1671875	0.0065712384	0.00022756403
0.021367474	0.20512821	0.0079215076	0.0002275633
0.021564407	0.14086688	0.0055066301	0.00022756403
0.021761343	0.1554559	0.0059790732	0.00022756403
0.021958278	0.16138764	0.0062376219	0.00022756403
0.022155214	0.14390603	0.0054787523	0.00022756403
0.02235215	0.14534883	0.0055053323	0.0002275633
0.022549083	0.1277533	0.0048624082	0.00022756403
0.022746019	0.14893617	0.005579283	0.00022756403
0.022942955	0.12338594	0.0046426589	0.00022756403
0.02313989	0.15700142	0.0058734715	0.00022756403
0.023336826	0.14783822	0.0054884655	0.0002275633
0.02353376	0.14064698	0.0052482141	0.00022756403
0.023730695	0.13161466	0.0048211231	0.00022756403
0.023927631	0.12827586	0.0047371993	0.0002275625
0.024124566	0.12466488	0.0045342427	0.00022756403
0.024321502	0.14611261	0.0053235576	0.00022756179
0.024518436	0.12348993	0.004495691	0.0002275625
0.024715371	0.14229248	0.0051389681	0.0002275625
0.024912307	0.11756935	0.0042437147	0.0002275625
0.025109243	0.12020461	0.0042753816	0.0002275625
0.025306178	0.12807244	0.0045804135	0.00022756179
0.025503112	0.094508298	0.0033492323	0.0002275625
0.025700048	0.12071157	0.0042785988	0.0002275625
0.025896983	0.1081425	0.0038332357	0.0002275625
0.026093919	0.11206897	0.0039097671	0.00022756097
0.026290854	0.10297767	0.0036033122	0.00022756179
0.026487788	0.096341461	0.0033434397	0.0002275625
0.026684724	0.096577018	0.0033546237	0.00022756097
0.026881659	0.10109623	0.0035023922	0.0002275625
0.027078595	0.11336516	0.003895612	0.00022756097
0.027275531	0.1143201	0.0039427457	0.00022756179
0.027472464	0.11292201	0.0038331107	0.00022756097
0.0276694	0.09456265	0.0032311236	0.00022756097
0.027866336	0.11832947	0.0040089437	0.00022756097
0.028063271	0.093023255	0.0031530149	0.00022756097
0.028260207	0.089743592	0.0030404024	0.00022756026
0.028457141	0.095398426	0.0031757785	0.00022756097
0.028654076	0.09307605	0.0031151143	0.00022756097
0.028851012	0.092841163	0.003084861	0.00022756097
0.029047947	0.077267639	0.0025677488	0.00022756097
0.029244883	0.098987624	0.0032989944	0.00022756026
0.029441817	0.098039217	0.0032170909	0.00022756097
0.029638752	0.093406595	0.0030789603	0.00022755946
0.029835688	0.073354907	0.0023917507	0.00022756097
0.030032624	0.08387097	0.002731744	0.00022755946
0.030229559	0.11038961	0.0036132054	0.00022755875
0.030426493	0.077659577	0.0025140313	0.00022755946
0.030623429	0.08626198	0.0027956557	0.00022755946
0.030820364	0.078431375	0.0025002828	0.00022755946
0.0310173	0.10935857	0.0035303021	0.00022755946
0.031214235	0.0746888	0.0023895728	0.00022755946
0.031411171	0.082135521	0.0026141498	0.00022755875
0.031608105	0.084798343	0.0027071601	0.00022755571
0.031805038	0.067745194	0.0021386335	0.00022756017
0.032001976	0.059656218	0.0018806641	0.00022755875
0.03219891	0.074371859	0.0023403354	0.00022756017
0.032395847	0.081918083	0.0025746331	0.00022755875
0.032592781	0.077457793	0.0024251977	0.00022755875
0.032789715	0.087084152	0.0027086362	0.00022756017
0.032986652	0.085714288	0.0026762323	0.00022755571
0.033183586	0.073028237	0.0022626156	0.00022755713
0.033380523	0.078034684	0.0024060146	0.00022755875
0.033577457	0.071290947	0.002197603	0.00022755571
0.033774391	0.083889417	0.0025752406	0.00022755713
0.033971328	0.076335877	0.0023432449	0.00022755571
0.034168262	0.08798486	0.0026913767	0.00022756017
0.0343652	0.073515549	0.0022416224	0.00022755571
0.034562133	0.088207982	0.0026733794	0.00022755571
0.034759067	0.079777367	0.00241576	0.00022756017
0.034956004	0.073148146	0.0022123605	0.00022755571
0.035152938	0.063013695	0.0018904754	0.00022755713
0.035349876	0.076642334	0.0022999828	0.00022755571
0.035546809	0.056261342	0.0016813985	0.00022755571
0.035743743	0.071557969	0.002139895	0.00022755713
0.035940681	0.079820625	0.0023780384	0.00022755571
0.036137614	0.087033749	0.0025799421	0.00022755713
0.036334552	0.085257553	0.0025277834	0.00022755266
0.036531486	0.093474425	0.0027636343	0.00022755266
0.036728419	0.08024691	0.0023706143	0.00022755713
0.036925357	0.091304347	0.0026795047	0.00022755571
0.037122291	0.074717633	0.0021895564	0.00022755713
0.037319228	0.082322359	0.002409979	0.00022755571
0.037516162	0.077184051	0.0022353383	0.00022755266
0.037713096	0.056555271	0.0016417301	0.00022755713
0.037910033	0.068994887	0.0020014113	0.00022755266
0.038106967	0.063613228	0.0018390352	0.00022755409
0.038303904	0.067510545	0.0019490675	0.00022755266
0.038500838	0.08402662	0.0024109241	0.00022755266
0.038697772	0.067768596	0.00193622	0.00022755409
0.038894709	0.070364237	0.0020122647	0.00022755266
0.039091643	0.069478907	0.0019856708	0.00022755409
0.03928858	0.067213118	0.0019127444	0.00022755266
0.039485514	0.067424856	0.0019106079	0.00022755266
0.039682448	0.058489032	0.0016551211	0.00022755409
0.039879385	0.057028111	0.0016051339	0.00022755266
0.040076319	0.081600003	0.0022973511	0.00022755409
0.040273257	0.061797753	0.0017397035	0.00022754962
0.04047019	0.062052507	0.0017387837	0.00022754962
0.040667124	0.068308182	0.0019141404	0.00022755409
0.040864062	0.064894445	0.0018032446	0.00022755266
0.041060995	0.065318815	0.0018107628	0.00022755409
0.041257933	0.078003123	0.0021680398	0.00022754962
0.041454867	0.070038907	0.0019427353	0.00022755266
0.0416518	0.0614786	0.001703423	0.00022755409
0.041848738	0.070992365	0.0019511592	0.00022754962
0.042045671	0.066159695	0.0018143762	0.00022754801
0.042242609	0.057794675	0.0015832939	0.00022754657
0.042439543	0.064540625	0.0017681279	0.00022754353
0.042636476	0.072877534	0.0019873651	0.00022754801
0.042833414	0.055722892	0.0015190195	0.00022754657
0.043030348	0.059746079	0.0016218327	0.00022754801
0.043227285	0.062038403	0.001675567	0.00022754353
0.043424219	0.06484893	0.0017505632	0.00022754353
0.043621153	0.055147059	0.0014853928	0.00022754801
0.04381809	0.049853373	0.0013403849	0.00022754353
0.044015024	0.057790782	0.0015531951	0.00022754495
0.044211961	0.057971016	0.0015513054	0.00022754353
0.044408895	0.062589929	0.0016690475	0.00022754353
0.044605829	0.06465517	0.0017234749	0.00022754495
0.044802766	0.063127689	0.0016815349	0.00022754353
0.0449997	0.047109209	0.0012488893	0.00022754495
0.045196638	0.055830389	0.0014748189	0.00022754353
0.045393571	0.05319149	0.0014073225	0.00022754353
0.045590505	0.056762438	0.0014933778	0.00022754495
0.045787442	0.069424964	0.0018284796	0.00022754048
0.045984376	0.063888893	0.0016736255	0.00022754191
0.046181314	0.068702288	0.0018007403	0.00022754353
0.046378247	0.049723756	0.0012977996	0.00022754048
0.046575181	0.064917125	0.001696695	0.00022754191
0.046772119	0.058944482	0.0015340741	0.00022754353
0.046969052	0.053097345	0.0013762293	0.00022754495
0.04716599	0.051806409	0.0013436554	0.00022754048
0.047362924	0.055256065	0.0014245798	0.00022754048
0.047559857	0.052949063	0.0013623313	0.00022754495
0.047756795	0.042310275	0.0010867091	0.00022754048
0.047953729	0.063044935	0.0016232544	0.00022754495
0.048150666	0.057730589	0.0014774685	0.00022754048
0.0483476	0.062375579	0.0015967337	0.00022754048
0.048544534	0.053045187	0.0013486615	0.00022754191
0.048741471	0.053394858	0.0013620219	0.00022753744
0.048938405	0.054723129	0.0013874623	0.00022754191
0.049135342	0.051114023	0.0012978776	0.00022754048
0.049332276	0.044069994	0.0011125283	0.00022753744
0.04952921	0.067917205	0.001717434	0.00022753887
0.049726147	0.074790455	0.0018617477	0.00022753744
0.049923081	0.070930965	0.0017671346	0.00022754191
0.050120018	0.054987211	0.0013808532	0.00022753744
0.050316952	0.056941777	0.0014308089	0.00022753744
0.050513886	0.066031747	0.001653875	0.00022753887
0.050710823	0.057704501	0.0014428969	0.00022753744
0.050907757	0.060211048	0.001490272	0.00022753887
0.051104695	0.062460963	0.0015514981	0.00022753744
0.051301628	0.042446941	0.0010518567	0.00022753744
0.051498562	0.051186018	0.0012693191	0.00022753887
0.0516955	0.047000617	0.0011596313	0.00022753744
0.051892433	0.053855568	0.0013230433	0.00022753887
0.052089371	0.052469134	0.0012935891	0.0002275344
0.052286305	0.046144504	0.0011272914	0.00022753744
0.052483238	0.054103345	0.0013249782	0.00022753583
0.052680176	0.063829787	0.0015637154	0.0002275344
0.052877109	0.06018237	0.001475098	0.00022753887
0.053074047	0.062688366	0.0015297002	0.0002275344
0.053270981	0.058507461	0.0014198307	0.00022753744
0.053467914	0.059069213	0.0014336127	0.00022753887
0.053664852	0.053113554	0.0013030856	0.0002275344
0.053861786	0.055108361	0.0013622501	0.00022753583
0.054058723	0.062889166	0.0015584268	0.0002275344
0.054255657	0.047619049	0.0011732256	0.0002275344
0.054452591	0.048155095	0.0011939162	0.00022753583
0.054649528	0.054273237	0.0013461846	0.0002275344
0.054846462	0.05956113	0.0014809613	0.00022753583
0.055043399	0.059231255	0.001476321	0.00022753136
0.055240333	0.053695515	0.001339781	0.0002275344
0.055437267	0.051669817	0.001287167	0.00022753583
0.055634204	0.051314142	0.0012731262	0.00022753136
0.055831138	0.055731475	0.0013927834	0.00022753279
0.056028076	0.052234109	0.0013009416	0.00022753136
0.056225009	0.050568901	0.0012612203	0.00022753136
0.056421943	0.048500318	0.0012153722	0.00022753279
0.05661888	0.051539913	0.0012821211	0.00022753136
0.056815814	0.064110622	0.0015972548	0.00022753279
0.057012752	0.060759492	0.0015180651	0.00022753136
0.057209685	0.05050505	0.0012594318	0.00022752832
0.057406619	0.048611112	0.0012125811	0.00022753279
0.057603557	0.057485785	0.0014345236	0.00022753136
0.05780049	0.072151899	0.001804822	0.00022753279
0.057997428	0.048994973	0.0012177902	0.00022752832
0.058194362	0.047979798	0.0011941695	0.00022752832
0.058391295	0.05495894	0.0013701265	0.00022752974
0.058588233	0.049498748	0.0012289365	0.00022752832
0.058785167	0.069620252	0.0017395449	0.00022752974
0.058982104	0.053425517	0.0013287518	0.00022752832
0.059179038	0.055276383	0.001374312	0.00022752832
0.059375972	0.055380743	0.0013787494	0.00022752974
0.059572909	0.045739349	0.0011348034	0.00022752528
0.059769843	0.064902328	0.0016182192	0.00022752974
0.05996678	0.064436182	0.0015938332	0.00022752528
0.060163714	0.054190297	0.0013488975	0.00022752528
0.060360648	0.062344141	0.0015463626	0.00022752974
0.060557585	0.065122105	0.0016195074	0.00022752528
0.060754519	0.062227752	0.0015428152	0.0002275267
0.060951456	0.049313359	0.0012214398	0.00022752528
0.06114839	0.049159925	0.0012163373	0.00022752528
0.061345324	0.0498132	0.0012332448	0.0002275267
0.061542261	0.045962732	0.001134917	0.00022752528
0.061739195	0.044154231	0.0010910209	0.0002275267
0.061936133	0.043397397	0.0010695799	0.00022752528
0.062133066	0.047648516	0.0011753241	0.00022752528
0.06233	0.043076921	0.0010592939	0.00022752528
0.062526934	0.047589615	0.0011727422	0.0002275251
0.062723875	0.047146402	0.0011644165	0.00022751919
0.062920809	0.046855733	0.0011530528	0.00022752528
0.063117743	0.062616244	0.0015496763	0.00022751919
0.063314676	0.049571604	0.0012162832	0.00022751919
0.06351161	0.045815516	0.001123313	0.00022752814
0.063708551	0.068056405	0.0016755944	0.00022751919
0.063905485	0.055624228	0.0013726475	0.00022751919
0.064102419	0.051219512	0.0012550803	0.00022751919
0.064299352	0.049601961	0.0012174008	0.00022752528
0.064496286	0.045759611	0.0011212571	0.00022752205
0.064693227	0.052247874	0.0012778894	0.00022751919
0.064890161	0.047272727	0.001154906	0.00022751919
0.065087095	0.05681124	0.0013945444	0.00022752528
0.065284029	0.042761147	0.0010474474	0.00022752528
0.065480962	0.041162226	0.0010033511	0.00022752205
0.065677904	0.04452467	0.0010834711	0.00022752528
0.065874837	0.060496069	0.0014779529	0.00022751919
0.066071771	0.044551477	0.0010836442	0.00022751919
0.066268705	0.033857316	0.00082313764	0.00022751919
0.066465639	0.042745333	0.0010398403	0.00022752205
0.06666258	0.041916169	0.001016548	0.00022751919
0.066859514	0.043004241	0.0010486681	0.00022751919
0.067056447	0.05172414	0.0012522797	0.00022751919
0.067253381	0.041841004	0.0010138145	0.00022751919
0.067450315	0.049013749	0.0011893644	0.00022751596
0.067647256	0.031736527	0.00076639844	0.00022751919
0.06784419	0.048561152	0.0011798259	0.00022751919
0.068041123	0.047928993	0.0011559622	0.00022751311
0.068238057	0.056312982	0.0013617655	0.00022751311
0.068434991	0.05882353	0.0014243813	0.00022752205
0.068631932	0.04609929	0.001111978	0.00022751311
0.068828866	0.040669855	0.00098605023	0.00022751311
0.0690258	0.045587376	0.0010936864	0.00022751311
0.069222733	0.047815822	0.0011529411	0.00022751311
0.069419667	0.041371159	0.00099719688	0.00022751596
0.069616608	0.049237985	0.0011839642	0.00022751311
0.069813542	0.044039931	0.0010588274	0.00022751311
0.070010476	0.048881035	0.0011768148	0.00022751311
0.07020741	0.047844063	0.0011543203	0.00022751311
0.070404343	0.045060657	0.0010747829	0.00022752205
0.070601285	0.049036779	0.001176713	0.00022751311
0.070798218	0.043579314	0.0010426327	0.00022751311
0.070995152	0.052785926	0.0012706663	0.00022751311
0.071192086	0.037361354	0.00089388044	0.00022751311
0.071389019	0.045454547	0.0010821213	0.00022751596
0.071585961	0.053364269	0.001276919	0.00022750701
0.071782894	0.057225432	0.0013655891	0.00022751311
0.071979828	0.037144516	0.00088721141	0.00022751311
0.072176762	0.04149856	0.00098846445	0.00022751311
0.072373696	0.034957021	0.0008288172	0.00022751596
0.072570637	0.039999999	0.00095411495	0.00022751311
0.072767571	0.054007959	0.0012798633	0.00022750701
0.072964504	0.049768519	0.0011893043	0.00022750701
0.073161438	0.043157298	0.0010204961	0.00022751311
0.073358372	0.050915331	0.0012098982	0.00022750988
0.073555313	0.048387095	0.0011524056	0.00022750701
0.073752247	0.0508762	0.0012012718	0.00022751311
0.073949181	0.040525112	0.00096084026	0.00022750701
0.074146114	0.037351444	0.00088102859	0.00022751311
0.074343048	0.041072447	0.00097174838	0.00022750988
0.074539989	0.044293016	0.0010479551	0.00022750701
0.074736923	0.05254332	0.0012347065	0.00022750701
0.074933857	0.037564028	0.0008885623	0.00022750701
0.07513079	0.044481982	0.0010474005	0.00022750701
0.075327724	0.04617117	0.0010877223	0.0002275038
0.075524665	0.046197183	0.0010891347	0.00022750701
0.075721599	0.04454343	0.001043445	0.00022750093
0.075918533	0.04617117	0.0010882148	0.00022750701
0.076115467	0.043648575	0.001024479	0.00022750701
0.0763124	0.041876048	0.00098191958	0.00022750988
0.076509342	0.051167965	0.0011994647	0.00022750701
0.076706275	0.044419765	0.0010395963	0.00022750701
0.076903209	0.043721974	0.0010268933	0.00022750701
0.077100143	0.04187328	0.00097545702	0.00022750093
0.077297077	0.049334813	0.0011539907	0.0002275038
0.077494018	0.053948831	0.001264982	0.00022750093
0.077690952	0.039032437	0.00090786989	0.00022750093
0.077887885	0.047910862	0.0011230215	0.00022750093
0.078084819	0.044662308	0.0010343622	0.00022750093
0.078281753	0.047330763	0.0011035908	0.0002275038
0.078478694	0.051733628	0.0012065477	0.00022750093
0.078675628	0.051338065	0.0011924603	0.00022750093
0.078872561	0.054575525	0.0012738007	0.00022750093
0.079069495	0.039237056	0.00090893847	0.00022750093
0.079266429	0.035460994	0.00082031346	0.0002275038
0.07946337	0.050708834	0.0011762346	0.00022750093
0.079660304	0.043807462	0.0010116493	0.00022750093
0.079857238	0.049699619	0.0011538358	0.00022750093
0.080054171	0.049215794	0.0011371641	0.00022750093
0.080251105	0.041961852	0.00097212452	0.0002275038
0.080448046	0.046361186	0.0010694085	0.00022749485
0.08064498	0.04550321	0.0010458608	0.00022750093
0.080841914	0.041192412	0.00095159071	0.00022750093
0.081038848	0.039699569	0.00091251929	0.00022749485
0.081235781	0.048701297	0.0011254804	0.00022749772
0.081432723	0.045891143	0.0010533276	0.00022749485
0.081629656	0.049600001	0.0011381258	0.00022749485
0.08182659	0.045527585	0.0010462606	0.00022749485
0.082023524	0.052155402	0.0011962247	0.00022749485
0.082220457	0.041154463	0.00094338867	0.00022749772
0.082417399	0.052266669	0.0011994228	0.00022749485
0.082614332	0.036189463	0.00082783651	0.00022749485
0.082811266	0.04354753	0.00099752529	0.00022749485
0.0830082	0.040526316	0.0009226597	0.00022749485
0.083205134	0.047568709	0.0010869856	0.00022749163
0.083402075	0.04226096	0.00096487778	0.00022749485
0.083599009	0.044172432	0.0010122509	0.00022749485
0.083795942	0.05666317	0.0012912041	0.00022748877
0.083992876	0.040335253	0.00091676915	0.00022749485
0.08418981	0.043455496	0.00098755781	0.00022749772
0.084386751	0.038199894	0.00086723501	0.00022748877
0.084583685	0.041296393	0.00093721098	0.00022749485
0.084780619	0.038521603	0.00087203877	0.00022749485
0.084977552	0.043841336	0.00099443179	0.00022748877
0.085174486	0.043433297	0.00098100188	0.00022749163
0.085371427	0.039521582	0.00089490402	0.00022748877
0.085568361	0.042202778	0.0009505233	0.00022748877
0.085765295	0.042695474	0.0009614756	0.00022748877
0.085962228	0.038060479	0.00086183293	0.00022748877
0.086159162	0.041194644	0.00092873175	0.00022748555
0.086356103	0.031090723	0.00069554878	0.00022748877
0.086553037	0.039527722	0.00088921923	0.00022748877
0.086749971	0.049263585	0.0011039173	0.00022748877
0.086946905	0.049382716	0.0011133603	0.00022748268
0.087143838	0.0466295	0.0010433227	0.00022749163
0.08734078	0.051504336	0.0011567882	0.00022748877
0.087537713	0.049138803	0.0011000797	0.00022748268
0.087734647	0.052604958	0.0011769314	0.00022748877
0.087931581	0.046239838	0.0010359605	0.00022748877
0.088128515	0.042692114	0.00094977376	0.00022748555
0.088325456	0.045820747	0.0010225307	0.00022748268
0.08852239	0.037974682	0.00084838422	0.00022748268
0.088719323	0.051422864	0.001142703	0.00022748268
0.088916257	0.041082166	0.00091359927	0.00022748268
0.089113191	0.044455543	0.00098757772	0.00022748555
0.089310132	0.040959042	0.00090949459	0.00022748268
0.089507066	0.036354583	0.0008051499	0.00022748268
0.089703999	0.057043649	0.0012647584	0.00022748268
0.089900933	0.0515	0.0011457121	0.00022748268
0.090097867	0.041810133	0.00092165277	0.00022747947
0.090294808	0.045363907	0.0010061662	0.00022748268
0.090491742	0.036013812	0.00079355139	0.00022748268
0.090688676	0.046959959	0.0010375371	0.00022748268
0.090885609	0.043928925	0.00096995465	0.0002274766
0.091082543	0.04283604	0.00094488013	0.00022748268
0.091279477	0.036891293	0.00081218628	0.00022748555
0.091476418	0.03787506	0.00083402975	0.0002274766
0.091673352	0.047363281	0.001040541	0.00022748268
0.091870286	0.039273441	0.00086424081	0.0002274766
0.092067219	0.037218414	0.00081752788	0.0002274766
0.092264153	0.039922103	0.00087503885	0.00022747947
0.092461094	0.042926829	0.00094193697	0.0002274766
0.092658028	0.046943765	0.0010307586	0.0002274766
0.092854962	0.048863087	0.0010691532	0.0002274766
0.093051895	0.042532623	0.00092898973	0.0002274766
0.093248829	0.047110248	0.0010321013	0.00022747337
0.09344577	0.046882551	0.0010248469	0.0002274766
0.093642704	0.040330417	0.00088360015	0.00022747052
0.093839638	0.050144646	0.0010947103	0.0002274766
0.094036572	0.038961038	0.0008488716	0.0002274766
0.094233505	0.051541425	0.0011250888	0.00022747947
0.094430447	0.043103449	0.00093697349	0.00022747052
0.09462738	0.041062802	0.00089704857	0.00022747052
0.094824314	0.050215207	0.0010925602	0.00022747052
0.095021248	0.048348494	0.0010519928	0.00022747052
0.095218182	0.045692526	0.00099079777	0.00022747337
0.095415123	0.048733875	0.0010593293	0.00022747052
0.095612057	0.048118152	0.001044172	0.00022747052
0.09580899	0.049453162	0.0010723418	0.00022747052
0.096005924	0.042105265	0.00091502123	0.00022747052
0.096202858	0.040303461	0.00087166595	0.00022747337
0.096399799	0.041607566	0.00089872529	0.00022747052
0.096596733	0.042803388	0.00092217879	0.00022746444
0.096793666	0.040642723	0.00087714975	0.00022747052
0.0969906	0.038752362	0.00083660486	0.00022746444
0.097187534	0.035344016	0.00076203374	0.00022747337
0.097384475	0.035899859	0.00077432755	0.00022746444
0.097581409	0.035244361	0.00075840205	0.00022747052
0.097778343	0.033503957	0.00071673916	0.00022746444
0.097975276	0.043294117	0.0009336131	0.00022746444
0.09817221	0.043843284	0.00094139366	0.00022746729
0.098369151	0.04526167	0.00097692187	0.00022746444
0.098566085	0.036127836	0.00077219121	0.00022746444
0.098763019	0.042154565	0.00090654002	0.00022746444
0.098959953	0.037465312	0.00080020627	0.00022746444
0.099156886	0.047113165	0.0010068211	0.00022746121
0.099353828	0.044817928	0.00096237683	0.00022746444
0.099550761	0.042286247	0.00090573617	0.00022745834
0.099747695	0.044260029	0.00094466808	0.00022745834
0.099944629	0.044403329	0.00094842567	0.00022745834
0.10014156	0.039540231	0.00084181211	0.00022746121
0.1003385	0.035994463	0.00076740613	0.00022745834
0.10053544	0.036697246	0.00078047812	0.00022746444
0.10073237	0.044144981	0.00094628066	0.00022745834
0.1009293	0.047662694	0.0010147216	0.00022746444
0.10112624	0.041818183	0.00088606164	0.00022746121
0.10132318	0.040900737	0.00087128318	0.00022746444
0.10152011	0.03407542	0.00072085037	0.00022745834
0.10171705	0.031550068	0.00066903536	0.00022745834
0.10191398	0.035095714	0.0007437903	0.00022745834
0.10211091	0.043855641	0.0009315444	0.00022746121
0.10230786	0.034561165	0.00073141581	0.00022745834
0.10250479	0.03164557	0.00066748884	0.00022745226
0.10270172	0.029279279	0.00061616505	0.00022745226
0.10289866	0.038724374	0.00082093565	0.00022745226
0.10309559	0.033393502	0.00070407399	0.00022745512
0.10329253	0.035811424	0.00075730169	0.00022745226
0.10348947	0.043946188	0.00092537754	0.00022745834
0.1036864	0.040090092	0.00084528874	0.00022745226
0.10388333	0.042171378	0.00088825764	0.00022745226
0.10408027	0.037336931	0.00078647939	0.00022746121
0.10427721	0.035426009	0.00074486516	0.00022745226
0.10447414	0.036787797	0.00077355729	0.00022745226
0.10467108	0.035650622	0.00074744143	0.00022745226
0.10486801	0.037997317	0.00079769728	0.00022745226
0.10506494	0.049223948	0.0010314534	0.00022745512
0.10526188	0.043207128	0.00090680463	0.00022745226
0.10545882	0.040734109	0.00085674017	0.00022744617
0.10565575	0.043863535	0.0009181549	0.00022745226
0.10585269	0.047957372	0.0010055925	0.00022745226
0.10604962	0.043286219	0.00090460747	0.00022745512
0.10624656	0.041150443	0.00086032471	0.00022744617
0.10644349	0.043689322	0.00091287791	0.00022744617
0.10664043	0.04623514	0.00096481346	0.00022745226
0.10683736	0.042901371	0.00089719472	0.00022744617
0.1070343	0.045334507	0.00094595581	0.00022744904
0.10723124	0.040664624	0.00084523117	0.00022744617
0.10742817	0.039207049	0.00081792939	0.00022744617
0.1076251	0.045553144	0.00094388827	0.00022744617
0.10782204	0.042197801	0.00087941077	0.00022744617
0.10801897	0.04766069	0.00099123735	0.00022744904
0.10821591	0.035886213	0.00074607827	0.00022744617
0.10841285	0.039232783	0.00081352179	0.00022744617
0.10860978	0.039376892	0.00081417477	0.00022744009
0.10880671	0.043459173	0.00090567308	0.00022744009
0.10900365	0.040138111	0.00082906033	0.00022744904
0.10920059	0.052313015	0.0010827904	0.00022744009
0.10939752	0.047722343	0.00098869496	0.00022744009
0.10959446	0.045356371	0.00093777804	0.00022744009
0.10979139	0.04561251	0.00094564754	0.00022744009
0.10998832	0.052721817	0.0010867304	0.00022744296
0.11018527	0.063820615	0.0013202992	0.00022744009
0.1103822	0.0521327	0.0010773448	0.00022744009
0.11057913	0.051502146	0.0010622102	0.00022743401
0.11077607	0.057659209	0.0011911698	0.00022744009
0.110973	0.046848383	0.00096205797	0.00022743687
0.11116994	0.055151775	0.0011354922	0.00022743401
0.11136688	0.056959316	0.0011737576	0.00022743401
0.11156381	0.057422373	0.001179681	0.00022743401
0.11176074	0.07692308	0.0015854643	0.00022743401
0.11195768	0.066581853	0.0013663373	0.00022744296
0.11215462	0.063702434	0.0013121271	0.00022743401
0.11235155	0.071731746	0.0014729829	0.00022743401
0.11254849	0.060785141	0.001244359	0.00022743401
0.11274542	0.078323454	0.0016065668	0.00022743401
0.11294235	0.07000424	0.0014369567	0.00022743687
0.11313929	0.073635213	0.0015097006	0.00022743401
0.11333623	0.066722617	0.0013623661	0.00022743401
0.11353316	0.06934461	0.001421288	0.00022742792
0.1137301	0.069327734	0.0014164887	0.00022743401
0.11392703	0.060669456	0.0012363777	0.00022743079
0.11412397	0.064678706	0.0013209117	0.00022742792
0.1143209	0.056326188	0.0011502897	0.00022742792
0.11451784	0.065299287	0.0013315304	0.00022742792
0.11471477	0.064204782	0.0013101958	0.00022742792
0.11491171	0.067937031	0.0013782278	0.00022743079
0.11510865	0.063439064	0.001291236	0.00022742792
0.11530558	0.048709407	0.0009893016	0.00022742792
0.11550251	0.072354667	0.0014750913	0.00022742792
0.11569945	0.067550763	0.0013705391	0.00022742792
0.11589638	0.059991725	0.001215774	0.00022743079
0.11609332	0.062422488	0.0012644494	0.00022742792
0.11629026	0.055463575	0.0011239001	0.00022742792
0.11648719	0.072343946	0.0014662755	0.00022742184
0.11668412	0.06069364	0.0012286286	0.00022742184
0.11688106	0.068351284	0.0013864079	0.00022742471
0.117078	0.069078945	0.0013962253	0.00022742184
0.11727493	0.066721246	0.0013455719	0.00022742184
0.11747187	0.065902576	0.001328948	0.00022742184
0.1176688	0.059040591	0.0011912256	0.00022742184
0.11786573	0.05981848	0.0012105687	0.00022742471
0.11806267	0.067782767	0.001365197	0.00022742184
0.11825961	0.066775911	0.0013471752	0.00022742184
0.11845654	0.068937548	0.0013835955	0.00022742184
0.11865348	0.067155071	0.0013504671	0.00022742184
0.11885041	0.081933632	0.0016535897	0.00022741863
0.11904735	0.076113358	0.0015269758	0.00022741576
0.11924428	0.07770545	0.0015629368	0.00022741576
0.11944122	0.081715211	0.0016388632	0.00022741576
0.11963815	0.077985376	0.0015674052	0.00022741576
0.11983509	0.083969466	0.0016787066	0.00022741863
0.12003203	0.083198711	0.0016675026	0.00022741576
0.12022896	0.091019914	0.001830231	0.00022741576
0.12042589	0.093927123	0.0018853757	0.00022741576
0.12062283	0.084168337	0.0016806832	0.00022741576
0.12081976	0.097071804	0.0019397958	0.00022741863
0.1210167	0.1068	0.002131612	0.00022741576
0.12121364	0.11914378	0.0023898801	0.00022740968
0.12141057	0.12215569	0.0024365166	0.00022740968
0.1216075	0.12073807	0.0024135166	0.00022741576
0.12180444	0.13773885	0.0027436344	0.00022741254
0.12200138	0.17417298	0.0034727873	0.00022740968
0.12219831	0.22484025	0.0044887825	0.00022741576
0.12239525	0.3061386	0.0060874759	0.00022741576
0.12259218	0.50739115	0.010136499	0.00022740968
0.12278911	0.77357739	0.015425218	0.00022741254
0.12298606	1.2954726	0.025809217	0.00022740968
0.12318299	2.0352335	0.040485717	0.00022740968
0.12337992	3.0066693	0.059541877	0.00022740968
0.12357686	4.2050772	0.083737314	0.00022740968
0.12377379	5.5922561	0.11114211	0.00022740646
0.12397073	6.8630085	0.13634576	0.00022740968
0.12416767	8.0487041	0.15949576	0.00022740359
0.1243646	8.7617559	0.17342469	0.00022740359
0.12456153	9.1332808	0.18135141	0.00022740359
0.12475847	8.9706116	0.17756443	0.00022740646
0.12495541	8.478158	0.16818105	0.00022739463
0.12515233	7.9980454	0.15812986	0.00022740323
0.12534928	7.1821718	0.14169326	0.00022739751
0.12554622	6.3832617	0.12622496	0.00022739751
0.12574315	5.650991	0.11139365	0.00022739751
0.12594008	4.9382572	0.097606078	0.00022739751
0.12613702	4.2530122	0.083829857	0.00022740968
0.12633395	3.5255361	0.069595568	0.00022740968
0.12653089	2.9271882	0.057591308	0.00022739751
0.12672782	2.3883307	0.046933964	0.00022739751
0.12692475	1.8446262	0.036389444	0.00022739751
0.12712169	1.4138591	0.027655208	0.00022740323
0.12731864	0.97900468	0.019296933	0.00022739751
0.12751557	0.71373606	0.013995053	0.00022739751
0.1277125	0.55153847	0.010811987	0.00022739751
0.12790944	0.4298957	0.0084444229	0.00022739751
0.12810637	0.37600923	0.0073684938	0.00022739751
0.1283033	0.34342661	0.0067194402	0.00022739751
0.12850024	0.30701417	0.0060066129	0.00022739751
0.12869717	0.28451243	0.005559626	0.00022738535
0.12889411	0.26738378	0.0052367561	0.00022739751
0.12909104	0.24381894	0.0047511901	0.00022740323
0.12928799	0.25498468	0.0049888524	0.00022739751
0.12948492	0.20689656	0.0040232423	0.00022739751
0.12968186	0.22048147	0.0043058759	0.00022738535
0.12987879	0.21706016	0.0042316485	0.00022738535
0.13007572	0.19788119	0.0038447927	0.00022738535
0.13027266	0.19977169	0.0038930681	0.00022738535
0.13046959	0.18442933	0.0035813404	0.00022738535
0.13066652	0.18240425	0.0035479437	0.00022738535
0.13086346	0.16294897	0.0031642867	0.00022739751
0.13106039	0.17329332	0.0033523277	0.00022740323
0.13125734	0.16768061	0.0032658491	0.00022738535
0.13145427	0.16341098	0.0031633093	0.00022738535
0.13165121	0.14274953	0.0027662201	0.00022738535
0.13184814	0.14911953	0.0028824785	0.00022738535
0.13204508	0.14103526	0.0027277546	0.00022738535
0.13224201	0.1544562	0.0029973534	0.00022738535
0.13243894	0.1412556	0.002726739	0.00022738535
0.13263588	0.140462	0.0027073799	0.00022738535
0.13283281	0.14098729	0.0027222754	0.00022738535
0.13302974	0.14071856	0.0027185129	0.00022739106
0.13322669	0.12462687	0.0024033985	0.00022738535
0.13342363	0.12379541	0.0023794908	0.00022738535
0.13362056	0.12513925	0.0024074286	0.00022738535
0.13381749	0.11516958	0.0022194702	0.00022737318
0.13401443	0.12127976	0.0023351079	0.00022737318
0.13421136	0.11873841	0.0022833492	0.00022738535
0.1344083	0.1311717	0.002514129	0.00022737318
0.13460523	0.11603843	0.0022265655	0.00022737318
0.13480216	0.11189591	0.0021533198	0.00022737318
0.1349991	0.11814815	0.002269743	0.0002273789
0.13519605	0.13060927	0.0024908555	0.00022737318
0.13539298	0.11032951	0.0021187686	0.00022737318
0.13558991	0.11941392	0.0022815943	0.00022737318
0.13578685	0.10694598	0.0020465353	0.00022737318
0.13598378	0.11461003	0.0021892267	0.00022737318
0.13618071	0.10014728	0.0019176344	0.00022737318
0.13637765	0.10142805	0.001937164	0.00022737318
0.13657458	0.12166606	0.0023217786	0.00022737318
0.13677152	0.10823615	0.0020625924	0.00022737318
0.13696845	0.10392442	0.0019772055	0.00022737318
0.13716538	0.10003651	0.0019075908	0.0002273789
0.13736233	0.095499448	0.0018230783	0.00022737318
0.13755926	0.091040462	0.0017264481	0.00022737318
0.1377562	0.097232334	0.0018518355	0.00022737318
0.13795313	0.098330915	0.0018690658	0.00022736102
0.13815007	0.09534128	0.0018080268	0.00022736102
0.138347	0.08339376	0.0015841482	0.00022737318
0.13854393	0.093884893	0.0017770622	0.00022737318
0.13874087	0.096727274	0.0018406757	0.00022736102
0.1389378	0.090613715	0.0017180159	0.00022736102
0.13913473	0.085990682	0.0016241608	0.00022736673
0.13933168	0.092739038	0.001754427	0.00022737318
0.13952862	0.085457809	0.0016155982	0.00022737318
0.13972555	0.071947671	0.0013676039	0.00022736102
0.13992248	0.096935138	0.0018263308	0.00022736102
0.14011942	0.081391178	0.0015373665	0.00022736102
0.14031635	0.091559373	0.0017276496	0.00022737318
0.14051329	0.10167678	0.0019167172	0.00022736102
0.14071022	0.079296738	0.0014985552	0.00022736102
0.14090715	0.070163004	0.0013172998	0.00022736102
0.14110409	0.096037127	0.0018104737	0.00022736673
0.14130104	0.084703356	0.0015976186	0.00022736102
0.14149797	0.084691711	0.0015909073	0.00022736102
0.1416949	0.075913444	0.0014261628	0.00022734885
0.14189184	0.071731448	0.0013450754	0.00022736102
0.14208877	0.085714288	0.001616138	0.00022736102
0.1422857	0.084012762	0.0015781461	0.00022736102
0.14248264	0.080730081	0.0015090791	0.00022736102
0.14267957	0.063120566	0.0011851194	0.00022736102
0.14287651	0.075922668	0.0014197195	0.00022736102
0.14307344	0.070771411	0.0013275889	0.00022735457
0.14327039	0.079761066	0.001491233	0.00022736102
0.14346732	0.077410273	0.0014484462	0.00022734885
0.14366426	0.076869078	0.001436591	0.00022734885
0.14386119	0.07195507	0.0013445079	0.00022736102
0.14405812	0.075656742	0.0014121747	0.00022734885
0.14425506	0.07359609	0.0013708778	0.00022734885
0.14445199	0.069098562	0.0012904768	0.00022734885
0.14464892	0.06949807	0.0012982162	0.00022734885
0.14484586	0.067083769	0.0012471174	0.00022734885
0.14504279	0.072175734	0.0013441334	0.00022735457
0.14523974	0.061161023	0.0011334877	0.00022734885
0.14543667	0.069800071	0.0012997098	0.00022733668
0.14563361	0.073932663	0.0013702094	0.00022734885
0.14583054	0.066041015	0.00122561	0.00022734885
0.14602748	0.072293326	0.0013389582	0.00022734885
0.14622441	0.068535827	0.001271671	0.00022733668
0.14642134	0.074982725	0.001390387	0.00022734885
0.14661828	0.064738289	0.0011978273	0.00022733668
0.14681521	0.070363954	0.0013067272	0.00022733668
0.14701214	0.056916177	0.0010537122	0.0002273424
0.14720909	0.070616603	0.0013072891	0.00022733668
0.14740603	0.068941742	0.001276177	0.00022733668
0.14760296	0.067779295	0.0012476385	0.00022733668
0.14779989	0.062693767	0.0011602388	0.00022733668
0.14799683	0.07509473	0.0013902045	0.00022733668
0.14819376	0.061813187	0.0011422007	0.00022733668
0.1483907	0.071893185	0.0013267876	0.00022733668
0.14858763	0.058543228	0.0010766666	0.00022733668
0.14878456	0.061834421	0.0011427894	0.00022733668
0.1489815	0.067457624	0.0012385463	0.0002273424
0.14917845	0.068483815	0.0012607343	0.00022733668
0.14937538	0.06207367	0.0011430657	0.00022733668
0.14957231	0.057229936	0.0010497665	0.00022733668
0.14976925	0.060616437	0.0011181651	0.00022733668
0.14996618	0.065385915	0.0011970225	0.00022733668
0.15016311	0.059322033	0.0010888731	0.00022732452
0.15036005	0.06698402	0.0012320086	0.00022732452
0.15055698	0.055929918	0.0010234399	0.00022733668
0.15075392	0.057443917	0.001055772	0.00022733668
0.15095085	0.066085204	0.0011959154	0.00022733024
0.1511478	0.059952848	0.0010932907	0.00022732452
0.15134473	0.061210688	0.0011182326	0.00022733668
0.15154167	0.060717881	0.0011086779	0.00022732452
0.1517386	0.057471264	0.0010532886	0.00022732452
0.15193553	0.053918287	0.00098323636	0.00022732452
0.15213247	0.04907563	0.00089639152	0.00022733668
0.1523294	0.055648677	0.0010155065	0.00022732452
0.15252633	0.056981005	0.0010368516	0.00022732452
0.15272327	0.057878889	0.0010553129	0.00022732452
0.1529202	0.045712378	0.00083182543	0.00022733024
0.15311715	0.057344064	0.0010470301	0.00022732452
0.15331408	0.064805582	0.0011781695	0.00022732452
0.15351102	0.054853722	0.00099687965	0.00022732452
0.15370795	0.061564058	0.0011197515	0.00022731235
0.15390489	0.062562399	0.0011380062	0.00022732452
0.15410182	0.041680451	0.00075485196	0.00022732452
0.15429875	0.053156145	0.00096562877	0.00022732452
0.15449569	0.058100931	0.0010554226	0.00022731235
0.15469262	0.057246856	0.0010378978	0.00022731235
0.15488955	0.056324109	0.0010190066	0.00022731809
0.1550865	0.055006586	0.00099518953	0.00022732452
0.15528344	0.056991383	0.0010342427	0.00022731235
0.15548037	0.061941039	0.0011239699	0.00022731235
0.1556773	0.058688525	0.001059617	0.00022731235
0.15587424	0.06062603	0.0010973669	0.00022731235
0.15607117	0.052545693	0.0009460373	0.00022731235
0.1562681	0.051763929	0.00093680876	0.00022731235
0.15646504	0.047963206	0.00086620596	0.00022732452
0.15666197	0.062459122	0.0011261099	0.00022731235
0.15685891	0.052958485	0.00095412583	0.00022731809
0.15705585	0.063295268	0.0011397019	0.00022731235
0.15725279	0.057629339	0.0010395502	0.00022731235
0.15744972	0.052340701	0.00094046962	0.00022731235
0.15764666	0.059244793	0.0010656859	0.00022731235
0.15784359	0.052786887	0.00095241115	0.00022731235
0.15804052	0.047341116	0.00084908539	0.00022731235
0.15823746	0.047898337	0.00086144655	0.00022731235
0.15843439	0.056020606	0.0010018566	0.00022731235
0.15863132	0.05155642	0.0009245734	0.00022730019
0.15882826	0.049185667	0.00088408543	0.00022731809
0.15902521	0.051712994	0.00092627673	0.00022730019
0.15922214	0.06057661	0.0010865013	0.00022730019
0.15941907	0.052918538	0.00094409951	0.00022731235
0.15961601	0.05082551	0.00091118633	0.00022730019
0.15981294	0.056020606	0.0010018232	0.00022730019
0.16000988	0.049259499	0.00088051398	0.00022730019
0.16020681	0.049919486	0.00089250872	0.00022730019
0.16040374	0.042321257	0.00075447082	0.00022730019
0.16060068	0.042230818	0.00075488864	0.00022730019
0.16079761	0.049760766	0.0008853919	0.00022730592
0.16099456	0.048484847	0.00086250855	0.00022730019
0.16119149	0.049243644	0.00088012672	0.00022730019
0.16138843	0.046050526	0.00082010234	0.00022730019
0.16158536	0.055430952	0.00098880241	0.00022730019
0.16178229	0.046711154	0.00082942197	0.00022728802
0.16197923	0.059349075	0.001056628	0.00022728802
0.16217616	0.054990463	0.00097703817	0.00022728802
0.1623731	0.045208532	0.00080341293	0.00022728802
0.16257003	0.04411298	0.0007824935	0.00022728802
0.16276696	0.039072428	0.00069278548	0.00022730592
0.16296391	0.049237613	0.00087417255	0.00022728802
0.16316085	0.048718762	0.00086296909	0.00022730019
0.16335778	0.043657072	0.00077310938	0.00022728802
0.16355471	0.046328396	0.00081897952	0.00022728802
0.16375165	0.05003228	0.0008953478	0.00022728802
0.16394858	0.048070636	0.00086521031	0.00022728802
0.16414551	0.049951028	0.0008986966	0.00022728802
0.16434245	0.047918044	0.0008674789	0.00022728802
0.16453938	0.055518616	0.0010084268	0.00022728802
0.16473632	0.048112262	0.00087592372	0.00022729376
0.16493326	0.041442048	0.00075696403	0.00022728802
0.1651302	0.040925864	0.00074586587	0.00022727586
0.16532713	0.05232558	0.0009637918	0.00022728802
0.16552407	0.046716318	0.00085578911	0.00022727586
0.165721	0.043050848	0.00078894629	0.00022728802
0.16591793	0.044284243	0.0008166621	0.00022727586
0.16611487	0.045594789	0.0008402089	0.00022727586
0.1663118	0.047222223	0.00087593752	0.00022728802
0.16650873	0.041251291	0.00076118176	0.00022728802
0.16670567	0.037891835	0.00069942715	0.00022728159
0.16690262	0.04793331	0.00088954502	0.00022727586
0.16709955	0.042493906	0.0007894662	0.00022727586
0.16729648	0.044943821	0.00083835027	0.00022727586
0.16749342	0.043175489	0.00080179505	0.00022727586
0.16769035	0.041273173	0.00076808775	0.00022727586
0.16788729	0.055790961	0.0010446901	0.00022727586
0.16808422	0.046940196	0.00087137072	0.00022727586
0.16828115	0.040382572	0.00075619033	0.00022727586
0.16847809	0.044608358	0.00083189009	0.00022726369
0.16867502	0.050143268	0.00094521465	0.00022728159
0.16887197	0.055338774	0.0010383817	0.00022727586
0.1690689	0.047669493	0.0008918086	0.00022726369
0.16926584	0.042643923	0.00079988758	0.00022727586
0.16946277	0.042378917	0.00079538376	0.00022727586
0.1696597	0.038475368	0.00072554016	0.00022726369
0.16985664	0.044531528	0.00083648646	0.00022726369
0.17005357	0.047159702	0.00088714162	0.00022727586
0.17025051	0.042400286	0.00079947838	0.00022726369
0.17044744	0.04481893	0.00084508967	0.00022726369
0.17064437	0.043243244	0.00081698317	0.00022726943
0.17084132	0.041396689	0.00078171626	0.00022727586
0.17103826	0.049908925	0.00094861968	0.00022726369
0.17123519	0.045964532	0.00087060838	0.00022726369
0.17143212	0.050054014	0.0009458976	0.00022726369
0.17162906	0.049583785	0.00093911128	0.00022726369
0.17182599	0.042944785	0.00081183284	0.00022726369
0.17202292	0.050810013	0.00097082352	0.00022726369
0.17221986	0.039927404	0.00075629179	0.00022726369
0.17241679	0.039737515	0.00075473823	0.00022726369
0.17261373	0.036821	0.00069912832	0.00022725726
0.17281067	0.047324356	0.0008990803	0.00022726369
0.17300761	0.041819517	0.00079685193	0.00022726369
0.17320454	0.057215743	0.0010883008	0.00022725153
0.17340147	0.059453472	0.0011384845	0.00022725153
0.17359841	0.054183561	0.0010361352	0.00022725153
0.17379534	0.044069041	0.0008404408	0.00022726369
0.17399228	0.052438576	0.00099975383	0.00022726369
0.17418921	0.038856305	0.0007397618	0.00022725153
0.17438614	0.036844064	0.0007067268	0.00022725153
0.17458308	0.035766963	0.00068302051	0.00022725726
0.17478003	0.039985191	0.00076541404	0.00022725153
0.17497696	0.035489835	0.000678337	0.00022725153
0.17517389	0.049595885	0.00094594498	0.00022725153
0.17537083	0.04008992	0.00077134988	0.00022723936
0.17556776	0.04283604	0.00081895769	0.00022723936
0.17576469	0.040983606	0.00078683131	0.00022723936
0.17596163	0.033632286	0.00064592151	0.00022725153
0.17615856	0.033395175	0.00063918193	0.00022725153
0.1763555	0.040193524	0.00077133777	0.00022725153
0.17655243	0.043801039	0.00083979225	0.00022724509
0.17674938	0.039444026	0.00076071452	0.00022723936
0.17694631	0.048368953	0.00093240489	0.00022723936
0.17714325	0.046763934	0.00090006075	0.00022725153
0.17734018	0.040555764	0.0007813155	0.00022723936
0.17753711	0.042766828	0.00082066213	0.00022723936
0.17773405	0.04207363	0.00081098976	0.00022723936
0.17793098	0.04528302	0.00087534956	0.00022723936
0.17812791	0.042026266	0.00080988172	0.00022723936
0.17832485	0.041745018	0.00080512528	0.00022723936
0.17852178	0.04704554	0.00090855634	0.00022724509
0.17871873	0.044922613	0.00086800673	0.00022723936
0.17891566	0.041760724	0.00080564589	0.00022723936
0.1791126	0.045712128	0.00088388426	0.00022722721
0.17930953	0.032842584	0.00063404394	0.00022723936
0.17950647	0.035253979	0.00068241975	0.00022723936
0.1797034	0.039697543	0.00076735689	0.00022723936
0.17990033	0.032063372	0.00061874557	0.00022723936
0.18009727	0.037642587	0.00072990445	0.00022722721
0.1802942	0.040514957	0.00078399712	0.00022722721
0.18049113	0.030616149	0.00059463567	0.00022723294
0.18068808	0.04281925	0.00082946249	0.00022722721
0.18088502	0.037135277	0.00071871432	0.00022722721
0.18108195	0.036204267	0.00070238602	0.00022722721
0.18127888	0.040668946	0.00078840205	0.00022722721
0.18147582	0.044656489	0.00086803356	0.00022722721
0.18167275	0.042109255	0.00081548613	0.00022722721
0.18186969	0.031800766	0.00061828003	0.00022722721
0.18206662	0.032592025	0.00063411304	0.00022722721
0.18226355	0.035200607	0.00068063132	0.00022721505
0.18246049	0.037207518	0.00072446902	0.00022723294
0.18265744	0.034364261	0.00066745916	0.00022721505
0.18285437	0.043043811	0.00083934097	0.00022722721
0.1830513	0.042708736	0.00083371665	0.00022722721
0.18324824	0.043809526	0.00085086096	0.00022721505
0.18344517	0.042275172	0.00082439114	0.00022721505
0.1836421	0.044478528	0.00086684048	0.00022721505
0.18383904	0.043461539	0.00084813056	0.00022721505
0.18403597	0.034973096	0.00068105222	0.00022721505
0.18423291	0.036552519	0.0007122262	0.00022721505
0.18442984	0.036419991	0.00071254082	0.00022722078
0.18462679	0.03642638	0.00070830336	0.00022721505
0.18482372	0.044735827	0.00087391463	0.00022721505
0.18502066	0.035741739	0.00069630676	0.00022721505
0.18521759	0.046017013	0.00090024411	0.00022721505
0.18541452	0.042602632	0.00083385006	0.00022721505
0.18561146	0.036251444	0.00070703175	0.00022721505
0.18580839	0.036622975	0.00071444712	0.00022721505
0.18600532	0.037166085	0.000726406	0.00022720288
0.18620226	0.04346139	0.00085144874	0.00022721505
0.18639919	0.037955072	0.00074303895	0.00022722078
0.18659614	0.046899226	0.00091866858	0.00022720288
0.18679307	0.035881434	0.00070430193	0.00022720288
0.18699001	0.036722071	0.00071791286	0.00022720288
0.18718694	0.040062234	0.000785588	0.00022720288
0.18738388	0.037250385	0.00072556536	0.00022720288
0.18758081	0.043154176	0.00084981305	0.00022721505
0.18777774	0.030703459	0.00060108083	0.00022720288
0.18797468	0.033099689	0.00064898824	0.00022720288
0.18817161	0.035463758	0.00069594721	0.00022719071
0.18836854	0.032894738	0.00064269843	0.00022720861
0.18856549	0.032258064	0.00063563802	0.00022719071
0.18876243	0.034643829	0.00067883451	0.00022720288
0.18895936	0.042105265	0.00082702545	0.00022720288
0.18915629	0.044939429	0.00088412897	0.00022719071
0.18935323	0.034361579	0.00067473121	0.00022719071
0.18955016	0.040408004	0.00079593353	0.00022720288
0.1897471	0.047415469	0.00093002926	0.00022719071
0.18994403	0.037558686	0.00073827244	0.00022720288
0.19014096	0.038204018	0.00075393333	0.00022719071
0.1903379	0.035811599	0.0007020784	0.00022719646
0.19053484	0.039385583	0.00077724486	0.00022719071
0.19073178	0.044781931	0.00087935018	0.00022719071
0.19092871	0.034618411	0.00068240042	0.00022719071
0.19112565	0.040711462	0.00080499431	0.00022719071
0.19132258	0.043257989	0.00084971398	0.00022719071
0.19151951	0.037022449	0.00073012884	0.00022719071
0.19171645	0.041241162	0.00081225415	0.00022719071
0.19191338	0.042142577	0.00083142443	0.00022717856
0.19211031	0.036862746	0.0007252426	0.00022719071
0.19230725	0.040047113	0.00078877638	0.00022719646
0.1925042	0.038110361	0.00075468316	0.00022719071
0.19270113	0.035405193	0.00069793151	0.00022719071
0.19289806	0.036628593	0.00072272477	0.00022719071
0.193095	0.039561301	0.00077846507	0.00022717856
0.19329193	0.038904328	0.00077076652	0.00022719071
0.19348887	0.039952531	0.00078430033	0.00022717856
0.1936858	0.043649234	0.00085673708	0.00022717856
0.19388273	0.031965271	0.00063070742	0.00022717856
0.19407967	0.056566454	0.00110301	0.00022717856
0.1942766	0.040653646	0.00080747233	0.0002271843
0.19447355	0.042644758	0.00083942967	0.00022717856
0.19467048	0.032897346	0.00065053848	0.00022717856
0.19486742	0.041139241	0.00081390108	0.0002271664
0.19506435	0.031386573	0.00062125461	0.0002271664
0.19526128	0.032309532	0.00064082601	0.0002271664
0.19545822	0.041128084	0.00080936123	0.0002271664
0.19565515	0.040849019	0.00081258954	0.0002271664
0.19585209	0.031746034	0.00062805845	0.0002271664
0.19604902	0.032462392	0.00064149423	0.0002271664
0.19624595	0.023505976	0.0004647375	0.00022717213
0.1964429	0.036643025	0.00072272879	0.00022717856
0.19663984	0.035256412	0.00070107874	0.0002271664
0.19683677	0.024891347	0.00049079768	0.0002271664
0.1970337	0.031948883	0.00063418905	0.0002271664
0.19723064	0.032975763	0.00065277016	0.0002271664
0.19742757	0.034551229	0.00068444305	0.0002271664
0.1976245	0.034122843	0.00067950576	0.00022715423
0.19782144	0.030482978	0.00060206366	0.0002271664
0.19801837	0.039137378	0.00077737583	0.0002271664
0.19821531	0.037096132	0.00073643588	0.00022715998
0.19841225	0.035429936	0.00070243288	0.0002271664
0.19860919	0.033626903	0.00066796422	0.00022715423
0.19880612	0.042806182	0.00084783847	0.00022715423
0.19900306	0.047044631	0.00093901268	0.00022715423
0.19919999	0.037495013	0.00074449583	0.00022715423
0.19939692	0.033864543	0.00067114434	0.00022715423
0.19959386	0.044354837	0.00088545535	0.0002271664
0.19979079	0.033041403	0.00065500947	0.00022715423
0.19998772	0.041683368	0.00082963839	0.00022715423
0.20018466	0.037081338	0.0007364261	0.00022715998
0.20038161	0.036590271	0.00072874961	0.00022715423
0.20057854	0.040816326	0.00081161404	0.00022715423
0.20077547	0.039952058	0.00079383457	0.00022715423
0.20097241	0.037857432	0.0007542785	0.00022715423
0.20116934	0.03514377	0.0006977212	0.00022715423
0.20136628	0.035412475	0.00070509268	0.00022714208
0.20156321	0.038831066	0.00077182543	0.00022715423
0.20176014	0.035872631	0.00071509159	0.00022714208
0.20195708	0.034027223	0.00067608187	0.00022715423
0.20215401	0.03449659	0.00068569195	0.00022715998
0.20235096	0.034232784	0.00068193092	0.00022714208
0.20254789	0.037615046	0.00074755982	0.00022714208
0.20274483	0.037728194	0.00075534004	0.00022714208
0.20294176	0.041216485	0.00081970886	0.00022714208
0.20313869	0.036782537	0.00073477172	0.00022714208
0.20333563	0.037979797	0.00075906998	0.00022714208
0.20353256	0.032656312	0.00064725173	0.00022712992
0.2037295	0.035337124	0.00070793077	0.00022712992
0.20392643	0.03364037	0.0006691342	0.00022714208
0.20412336	0.032873377	0.00065787951	0.00022714782
0.20432031	0.033051189	0.00065882964	0.00022714208
0.20451725	0.043303929	0.00086237217	0.00022714208
0.20471418	0.030056864	0.00060121674	0.00022712992
0.20491111	0.028388644	0.00056341989	0.00022714208
0.20510805	0.034132466	0.00068347942	0.00022712992
0.20530498	0.033925686	0.00067708245	0.00022712992
0.20550191	0.025692493	0.00051008159	0.00022712992
0.20569885	0.031428572	0.0006308374	0.00022712992
0.20589578	0.018845228	0.00037253197	0.00022712992
0.20609272	0.030957229	0.00061981461	0.00022713565
0.20628966	0.030229745	0.00060220651	0.00022712992
0.2064866	0.034888439	0.0006977928	0.00022711777
0.20668353	0.024390243	0.00048732525	0.00022712992
0.20688047	0.030217566	0.00060195127	0.00022712992
0.2070774	0.034035657	0.00068067102	0.00022711777
0.20727433	0.033427306	0.00066632358	0.00022711777
0.20747127	0.032179225	0.00064462551	0.00022711777
0.2076682	0.027619822	0.00055191899	0.00022712992
0.20786513	0.02708165	0.00054013554	0.00022712992
0.20806207	0.035423454	0.00071024173	0.0002271235
0.20825902	0.032700848	0.00065179821	0.00022711777
0.20845595	0.03585982	0.00071943877	0.00022711777
0.20865288	0.028686868	0.00057186116	0.00022711777
0.20884982	0.031441405	0.00063090009	0.00022711777
0.20904675	0.030919448	0.00061922433	0.00022711777
0.20924369	0.027180528	0.0005430968	0.0002271056
0.20944062	0.030781694	0.0006149821	0.00022711777
0.20963755	0.032833401	0.00065657817	0.00022711777
0.20983449	0.035361841	0.00071233837	0.00022711777
0.21003142	0.035308443	0.00070669048	0.00022711133
0.21022837	0.027687296	0.00055394293	0.00022711777
0.2104253	0.03178484	0.00063699356	0.00022711777
0.21062224	0.031438936	0.00062630849	0.0002271056
0.21081917	0.04408735	0.00089050864	0.0002271056
0.2110161	0.034008097	0.00067994202	0.0002271056
0.21121304	0.03135179	0.00062809692	0.0002271056
0.21140997	0.028536486	0.00057132792	0.0002271056
0.2116069	0.033496734	0.00067250244	0.0002271056
0.21180384	0.026606631	0.00053387176	0.0002271056
0.21200077	0.036767676	0.0007342365	0.00022711133
0.21219772	0.039917696	0.00080479973	0.00022709343
0.21239465	0.028759245	0.0005783916	0.0002271056
0.21259159	0.034118604	0.00068257208	0.0002271056
0.21278852	0.036326531	0.0007292683	0.0002271056
0.21298546	0.030844156	0.0006169636	0.00022709343
0.21318239	0.032590758	0.00065713952	0.00022709343
0.21337932	0.037743505	0.00075571146	0.00022709343
0.21357626	0.037188392	0.00074687653	0.0002271056
0.21377319	0.033842344	0.00068293879	0.0002271056
0.21397012	0.042735044	0.0008568698	0.00022709918
0.21416707	0.037597056	0.00075542089	0.00022709343
0.21436401	0.029351814	0.00058804755	0.00022709343
0.21456094	0.039852094	0.00080307561	0.00022709343
0.21475787	0.033661742	0.00067706971	0.00022708128
0.21495481	0.037597056	0.0007551497	0.00022709343
0.21515174	0.035231464	0.00070820766	0.00022709343
0.21534868	0.043389276	0.00087340776	0.00022708128
0.21554561	0.034993824	0.00070549332	0.00022709343
0.21574254	0.030637255	0.00061453704	0.00022708128
0.21593948	0.028806584	0.00058006094	0.00022709918
0.21613643	0.03325123	0.00066873909	0.00022708128
0.21633336	0.031570315	0.00063467608	0.00022708128
0.21653029	0.03245686	0.00065341202	0.00022708128
0.21672723	0.027743777	0.0005556391	0.00022709343
0.21692416	0.030927835	0.00062296411	0.00022708128
0.21712109	0.029158112	0.00058601185	0.00022708128
0.21731803	0.027926078	0.00056100183	0.00022708128
0.21751496	0.028818443	0.00058029895	0.00022708128
0.2177119	0.024439918	0.0004885383	0.00022708128
0.21790883	0.026589114	0.00053688476	0.00022708702
0.21810578	0.028594771	0.00057248416	0.00022708128
0.21830271	0.037603308	0.00075969129	0.00022708128
0.21849965	0.029218107	0.00058770308	0.00022706912
0.21869658	0.028232405	0.00056595437	0.00022708128
0.21889351	0.034825869	0.00070390897	0.00022706912
0.21909045	0.040966816	0.00082427438	0.00022706912
0.21928738	0.03260421	0.00065743946	0.00022706912
0.21948431	0.0330033	0.00066553004	0.00022706912
0.21968125	0.03000411	0.00060365704	0.00022706912
0.21987818	0.030127941	0.00060751423	0.00022707487
0.22007513	0.028653296	0.00057519792	0.00022706912
0.22027206	0.032766487	0.00066246232	0.00022706912
0.220469	0.022167487	0.00044442675	0.00022706912
0.22066593	0.024834437	0.00050055853	0.00022705697
0.22086287	0.026348291	0.00052973808	0.00022705697
0.2210598	0.028842192	0.00058089604	0.00022705697
0.22125673	0.02813405	0.00056728133	0.00022705697
0.22145367	0.029752066	0.00060035358	0.00022705697
0.2216506	0.0392562	0.00079314812	0.00022706912
0.22184753	0.034979425	0.00070476113	0.00022707487
0.22204448	0.030705394	0.00062020659	0.00022705697
0.22224142	0.022277229	0.00044757462	0.00022705697
0.22243835	0.029690722	0.00059814577	0.00022705697
0.22263528	0.028192371	0.00056829414	0.00022705697
0.22283222	0.022615131	0.0004541816	0.00022704482
0.22302915	0.025811823	0.00052181527	0.00022705697
0.22322609	0.029326724	0.00059086439	0.00022704482
0.22342302	0.0324702	0.00065307081	0.00022704482
0.22361995	0.03611457	0.00073054363	0.00022705697
0.22381689	0.037572253	0.00075837906	0.0002270627
0.22401384	0.031732775	0.00064257515	0.00022704482
0.22421077	0.03292181	0.00066264562	0.00022704482
0.2244077	0.019461697	0.00039132591	0.00022704482
0.22460464	0.029546401	0.00059811969	0.00022704482
0.22480157	0.022176592	0.00044423289	0.00022704482
0.2249985	0.03018868	0.00061301794	0.00022704482
0.22519544	0.024180328	0.00048459784	0.00022704482
0.22539237	0.024116425	0.00048672032	0.00022704482
0.22558931	0.030112924	0.00061107107	0.00022704482
0.22578624	0.029832449	0.00059893931	0.00022703838
0.22598319	0.028738026	0.00058172527	0.00022703265
0.22618012	0.023150062	0.00046580608	0.00022704482
0.22637706	0.030975303	0.00062863692	0.00022704482
0.22657399	0.027351845	0.00055191782	0.00022703265
0.22677092	0.030679934	0.00062035536	0.00022703265
0.22696786	0.030265341	0.00061167538	0.00022703265
0.22716479	0.026086956	0.00052604597	0.00022704482
0.22736172	0.025512338	0.00051685405	0.00022703265
0.22755866	0.023140496	0.00046566897	0.00022703265
0.22775559	0.031341411	0.00063561817	0.00022703265
0.22795253	0.031923715	0.00064525375	0.00022703838
0.22814947	0.030315615	0.00061343395	0.00022703265
0.22834641	0.027363185	0.00055264827	0.00022703265
0.22854334	0.028250935	0.00057094626	0.0002270205
0.22874027	0.021437578	0.00043442665	0.00022703265
0.22893721	0.023524556	0.00047320145	0.00022703265
0.22913414	0.026622295	0.00053855911	0.0002270205
0.22933108	0.030730898	0.0006216715	0.0002270205
0.22952801	0.026260942	0.00053145451	0.0002270205
0.22972494	0.028321533	0.00057283579	0.0002270205
0.22992188	0.030679934	0.00061966543	0.00022703838
0.23011883	0.02874049	0.00058636873	0.0002270205
0.23031576	0.030140379	0.00060812215	0.0002270205
0.23051269	0.03329172	0.00067448831	0.0002270205
0.23070963	0.025833333	0.00052260625	0.0002270205
0.23090656	0.029436152	0.00059465476	0.00022700834
0.23110349	0.026006712	0.00052759709	0.00022700834
0.23130043	0.024196913	0.00048990129	0.0002270205
0.23149736	0.029950082	0.00060588273	0.0002270205
0.2316943	0.020885548	0.00042162015	0.0002270205
0.23189123	0.026151931	0.00052760605	0.00022701408
0.23208818	0.030176027	0.00061347353	0.00022700834
0.23228511	0.026228143	0.0005300506	0.00022700834
0.23248205	0.030505642	0.00061873981	0.00022700834
0.23267898	0.036866359	0.00074945454	0.00022700834
0.23287591	0.030756442	0.0006221006	0.00022700834
0.23307285	0.028439984	0.00057668763	0.00022700834
0.23326978	0.031276062	0.00063385989	0.00022700834
0.23346671	0.026711185	0.00054045219	0.00022700834
0.23366365	0.031118587	0.00063312193	0.00022700834
0.23386058	0.030467445	0.00061604503	0.00022701408
0.23405753	0.026424443	0.0005323012	0.00022699618
0.23425446	0.029448885	0.00059895037	0.00022700834
0.2344514	0.0272651	0.00055381533	0.00022699618
0.23464833	0.030087756	0.00061030505	0.00022699618
0.23484527	0.031772576	0.00064469228	0.00022700834
0.2350422	0.018394649	0.00037188581	0.00022700834
0.23523913	0.029819403	0.00060618529	0.00022699618
0.23543607	0.027060783	0.00054707337	0.00022699618
0.235633	0.028846154	0.00058513688	0.00022699618
0.23582993	0.040217847	0.00081824011	0.00022700192
0.23602688	0.038736843	0.0007896584	0.00022698403
0.23622382	0.036265109	0.00073531392	0.00022699618
0.23642075	0.028380634	0.00057500962	0.00022699618
0.23661768	0.03436714	0.00069867726	0.00022698403
0.23681462	0.029882155	0.00060760922	0.00022698403
0.23701155	0.028834099	0.00058427046	0.00022699618
0.23720849	0.029657478	0.0006014962	0.00022698403
0.23740542	0.026868178	0.00054522458	0.00022699618
0.23760235	0.031865828	0.00064662134	0.00022698403
0.23779929	0.027299454	0.00055446161	0.00022698977
0.23799624	0.026293823	0.00053245306	0.00022698403
0.23819317	0.025641026	0.0005204847	0.00022698403
0.2383901	0.027287994	0.00055437954	0.00022698403
0.23858704	0.02764977	0.00056148542	0.00022698403
0.23878397	0.029756915	0.00060428056	0.00022698403
0.2389809	0.032298658	0.0006568812	0.00022697187
0.23917784	0.022278268	0.00045169977	0.00022697187
0.23937477	0.0252738	0.00051346584	0.00022698403
0.23957171	0.028475711	0.00057802908	0.00022697187
0.23976864	0.029608008	0.00059902348	0.00022697762
0.23996559	0.027789474	0.00056482205	0.00022697187
0.24016252	0.033417936	0.00068231922	0.00022697187
0.24035946	0.031955689	0.00065380731	0.00022697187
0.24055639	0.023245985	0.00047300116	0.00022697187
0.24075332	0.024701875	0.00050485966	0.00022697187
0.24095026	0.022308022	0.00045682109	0.00022697187
0.24114719	0.025106383	0.00051330635	0.00022697187
0.24134412	0.025267666	0.0005179579	0.00022697187
0.24154106	0.023727352	0.00048826489	0.00022697187
0.24173799	0.031074665	0.00064045674	0.00022696547
0.24193494	0.021701388	0.00044729991	0.00022697187
0.24213187	0.020654045	0.0004234777	0.00022695972
0.24232881	0.024923481	0.00051620073	0.00022697187
0.24252574	0.024923481	0.00051636272	0.00022695972
0.24272268	0.022707423	0.00046950098	0.00022695972
0.24291961	0.022016732	0.00045708625	0.00022695972
0.24311654	0.02610966	0.00053945702	0.00022695972
0.24331348	0.019991115	0.0004161087	0.00022695972
0.24351041	0.032186948	0.00067021471	0.00022695972
0.24370734	0.030369718	0.00063210836	0.00022696547
0.24390429	0.022241993	0.00046449943	0.00022695972
0.24410123	0.033094812	0.00069464737	0.00022695972
0.24429816	0.037300177	0.00078081561	0.00022694757
0.24449509	0.029237095	0.00061890989	0.00022694757
0.24469203	0.029953917	0.00063774007	0.00022695972
0.24488896	0.020618556	0.00044110406	0.00022694757
0.2450859	0.019275976	0.00041242267	0.00022694757
0.24528283	0.021296734	0.00045707414	0.00022694757
0.24547976	0.02479733	0.00053539255	0.00022694757
0.2456767	0.023099134	0.00050042738	0.0002269533
0.24587364	0.033670034	0.00073256518	0.00022694757
0.24607058	0.029626032	0.00064697332	0.0002269354
0.24626751	0.027131783	0.00059045263	0.00022694757
0.24646445	0.019694733	0.00043134601	0.00022694757
0.24666138	0.022604423	0.00049573008	0.00022694757
0.24685831	0.021213615	0.00046526879	0.0002269354
0.24705525	0.02980626	0.00065707287	0.0002269354
0.24725218	0.029955067	0.00066369103	0.0002269354
0.24744911	0.029160382	0.00064775976	0.00022694757
0.24764605	0.029485257	0.00065312581	0.00022694115
0.247843	0.03021148	0.00067109137	0.0002269354
0.24803993	0.021472393	0.00047869972	0.0002269354
0.24823686	0.02614044	0.00058521196	0.0002269354
0.2484338	0.028513238	0.00063674792	0.00022692325
0.24863073	0.018004116	0.000401214	0.0002269354
0.24882767	0.026234567	0.0005881447	0.00022692325
0.2490246	0.024314538	0.00054725842	0.00022692325
0.24922153	0.027168235	0.00061376562	0.00022692325
0.24941847	0.028541775	0.00064376777	0.00022692325
0.2496154	0.028465999	0.00064630259	0.000226929
0.24981235	0.02903907	0.00066066883	0.00022692965
0.25000927	0.025587467	0.00057763525	0.00022692325
0.2502062	0.025066666	0.00057099335	0.0002269354
0.25040314	0.024364406	0.00055367692	0.0002269111
0.25060007	0.018388318	0.00042066173	0.0002269226
0.25079703	0.027777778	0.00063454034	0.0002269111
0.25099397	0.022568511	0.00051552418	0.0002269111
0.2511909	0.026044494	0.00059834804	0.0002269111
0.25138783	0.026386645	0.00060491246	0.0002269111
0.25158477	0.020708447	0.00047613302	0.0002269111
0.2517817	0.029475983	0.00068148662	0.0002269111
0.25197864	0.032328766	0.00074898737	0.0002269111
0.25217557	0.022714682	0.00052758952	0.0002269111
0.2523725	0.027442371	0.00063661917	0.0002269111
0.25256944	0.022234574	0.00051710504	0.0002269111
0.25276637	0.021654636	0.00050211587	0.0002269111
0.2529633	0.018425461	0.0004288544	0.0002268868
0.25316024	0.020270269	0.00047364467	0.0002269111
0.25335717	0.022740193	0.00053415901	0.0002269111
0.25355411	0.018746339	0.00044626679	0.0002269111
0.25375104	0.027075812	0.00065593037	0.0002269111
0.25394797	0.022342995	0.00053970492	0.0002268868
0.25414491	0.028255528	0.00069184159	0.0002269111
0.25434184	0.02972802	0.00073920575	0.0002269111
0.25453877	0.016927084	0.00042300168	0.0002269226
0.25473574	0.034922767	0.00089421356	0.0002268868
0.25493267	0.037465941	0.00096532883	0.0002269111
0.25512961	0.029207231	0.00075770868	0.0002269111
0.25532654	0.027679205	0.00072468742	0.0002269111
0.25552347	0.030589949	0.00081263651	0.0002268868
0.25572041	0.032575756	0.00088450144	0.0002269111
0.25591734	0.029983792	0.00083593058	0.0002269111
0.25611427	0.032674119	0.00094245345	0.0002268868
0.25631121	0.032876711	0.00097696588	0.0002268868
0.25650814	0.023562677	0.0007067321	0.0002268868
0.25670508	0.023233302	0.00070284453	0.0002268868
0.25690201	0.023255814	0.00073430315	0.0002268868
0.25709894	0.029180696	0.00094726589	0.0002268868
0.25729588	0.016528925	0.00054155354	0.0002268868
0.25749281	0.020383693	0.00067756703	0.0002268868
0.25768974	0.02264151	0.00077832217	0.0002268868
0.25788668	0.020698577	0.00071526645	0.0002268868
0.25808361	0.024032043	0.00084834179	0.0002268868
0.25828055	0.02872777	0.0010326849	0.0002268868
0.25847748	0.038626611	0.0014326632	0.00022689829
0.25867444	0.024745269	0.00091319409	0.00022686248
0.25887138	0.024464833	0.00092698191	0.00022686248
0.25906831	0.029320987	0.0011154015	0.00022686248
0.25926524	0.025356578	0.00096996565	0.0002268868
0.25946218	0.025083613	0.00098705955	0.00022686248
0.25965911	0.027164686	0.0010801511	0.0002268868
0.25985605	0.038128249	0.0015487876	0.0002268868
0.26005298	0.015625	0.00061434152	0.00022686248
0.26024991	0.01923077	0.00076733012	0.00022686248
0.26044685	0.039285716	0.0016234056	0.0002268868
0.26064378	0.04812834	0.0019900813	0.00022686248
0.26084071	0.03057554	0.0012544709	0.00022686248
0.26103765	0.029465931	0.001220363	0.00022686248
0.26123458	0.02037037	0.00082894124	0.00022686248
0.26143152	0.024528302	0.0010113887	0.0002268868
0.26162845	0.024029575	0.00098711147	0.00022686248
0.26182538	0.013384321	0.00052928925	0.00022686248
0.26202232	0.035225049	0.0015158448	0.00022686248
0.26221925	0.025793651	0.0011049631	0.00022686248
0.26241618	0.013384321	0.00054236007	0.00022684968
0.26261315	0.021825397	0.00091938482	0.00022683818
0.26281008	0.036585364	0.0015834424	0.00022686248
0.26300701	0.028747434	0.0012565756	0.00022686248
0.26320395	0.026156941	0.0011284051	0.00022683818
0.26340088	0.023255814	0.0010112993	0.00022686248
0.26359782	0.027196653	0.0011809587	0.00022683818
0.26379475	0.027777778	0.0012349745	0.00022686248
0.26399168	0.025641026	0.0011360113	0.00022683818
0.26418862	0.041304346	0.0018765013	0.00022683818
0.26438555	0.017897092	0.00079271867	0.00022683818
0.26458248	0.027459955	0.001259106	0.00022683818
0.26477942	0.024663677	0.0011147603	0.00022683818
0.26497635	0.016317016	0.00073020614	0.00022686248
0.26517329	0.027972028	0.0012945172	0.00022683818
0.26537022	0.051344745	0.0024747695	0.00022683818
0.26556715	0.040865384	0.001931746	0.00022683818
0.26576409	0.024752475	0.0011697346	0.00022683818
0.26596102	0.030303031	0.0014597996	0.00022683818
0.26615795	0.023316063	0.0011203368	0.00022683818
0.26635489	0.020460358	0.00096913654	0.00022684968
0.26655185	0.023872679	0.0011607294	0.00022681388
0.26674879	0.024657534	0.001218492	0.00022683818
0.26694572	0.021621622	0.0010528805	0.00022683818
0.26714265	0.0054794522	0.000203082	0.00022681388
0.26733959	0.02259887	0.0011048574	0.00022681388
0.26753652	0.022857143	0.0011444933	0.00022681388
0.26773345	0.01510574	0.0007437552	0.00022683818
0.26793039	0.014925373	0.00073046086	0.00022683818
0.26812732	0.026627218	0.0013675229	0.00022683818
0.26832426	0.021875	0.001133912	0.00022683818
0.26852119	0.015873017	0.0008011976	0.00022683818
0.26871812	0.012861736	0.00063262944	0.00022683818
0.26891506	0.01607717	0.00081672106	0.00022681388
0.26911199	0.013468013	0.00067793543	0.00022683818
0.26930892	0.020134227	0.001066513	0.00022683818
0.26950586	0.017301038	0.00091184472	0.00022683818
0.26970279	0.01718213	0.00085613894	0.00022681388
0.26989973	0.021739131	0.0011966997	0.00022681388
0.27009666	0.0074906368	0.0003247603	0.00022681388
0.27029359	0.0038167939	0	0.00022684968
0.27049056	0.0036630037	0	0.00022681388
0.27068749	0.0077821012	0.00034392352	0.00022681388
0.27088442	0	0	0.00022681388
0.27108136	0.0083682006	0.00038355586	0.00022681388
0.27127829	0.0084033618	0.00038597916	0.00022681388
0.27147523	0	0	0.00022681388
0.27167216	0	0	0.00022681388
0.27186909	0	0	0.00022681388
0.27206603	0.041666668	0	0.00022681388
0.27226296	0	0	0.00022681388
