#   DataFileName=PAL30_150C_WAXS_08172017.tif
#   DataFileType=.tif
#   
#   DataFilePath=E:DATA:PAL30_08262017:
#   
#   Processed on=Wed, Jan 16, 2019,2:43:12 AM
#   Units=Arbitrary
#   SampleThickness=1
#   SampleTransmission=1
#   CorrectionFactor=1
#   SampleMeasurementTime=1
#   EmptyMeasurementTime=1
#   BackgroundMeasTime=1
#   SampleI0=1
#   EmptyI0=1
#   Nika_SampleToDetectorDistacne=1552.1
#   Nika_Wavelength=1.54
#   Nika_XrayEnergy=8.0509
#   Nika_PixelSizeX=0.075
#   Nika_PixelSizeY=0.075
#   Nika_HorizontalTilt=0
#   Nika_VerticalTilt=0
#   Nika_BeamCenterX=1540.3
#   Nika_BeamCenterY=830.17
#   Nika_BeamSizeX=0
#   Nika_BeamCenterY=830.17
#   CalibrationFormula=1*((Sa2D))
#   CurrentMaskFileName=PAL30_30C_WAXS_mask.hdf
#   QvectorMaxNumPnts=1
#   QvectorNumberPoints=1383
#   CircularAverage=1
#   PolarizationCorrection=None
#   UncertainityCalculationMethod=OldNikaMethod

0.0060065244	4	2.7386129	0.00022756745
0.00620346	3.6800001	0.72892618	0.00022756765
0.0064003952	2.9649122	0.39083284	0.00022756765
0.0065973303	4.0999999	0.45713401	0.00022756765
0.0067942655	6.0306125	0.60309631	0.00022756765
0.0069912006	7.8224301	0.73651314	0.00022756745
0.0071881362	9.3032789	0.81957191	0.00022756727
0.0073850714	9.801527	0.83732653	0.00022756727
0.0075820065	9.2413797	0.75308585	0.00022756727
0.0077789417	8.4217691	0.68179959	0.00022756745
0.0079758773	7.3227849	0.57334864	0.00022756746
0.0081728119	6.7852759	0.52279085	0.00022756707
0.0083697475	6.0393257	0.44535536	0.00022756671
0.0085666822	5.2435231	0.37148809	0.00022756783
0.0087636178	4.5538464	0.32175589	0.00022756783
0.0089605534	4.0853081	0.27755955	0.00022756746
0.0091574881	3.6986899	0.24135679	0.00022756707
0.0093544237	2.9960001	0.18710254	0.00022756671
0.0095513584	2.9961977	0.18268932	0.00022756707
0.009748294	2.5294118	0.15167488	0.00022756707
0.0099452296	2.5054152	0.14900362	0.00022756595
0.010142164	2.1690648	0.12836201	0.00022756707
0.0103391	2.0235691	0.11627597	0.00022756671
0.010536035	1.8745763	0.10800985	0.00022756707
0.01073297	1.8026316	0.10233289	0.00022756783
0.010929906	1.6012862	0.090098068	0.00022756746
0.01112684	1.686901	0.094475247	0.00022756783
0.011323776	1.4126506	0.076882355	0.00022756746
0.011520711	1.4237804	0.077930197	0.00022756707
0.011717646	1.2810651	0.06898351	0.00022756707
0.011914582	1.2573099	0.067360424	0.00022756746
0.012111517	1.0405797	0.055627558	0.00022756783
0.012308452	1.1346154	0.059003111	0.00022756671
0.012505387	0.90960455	0.047887545	0.00022756783
0.012702323	0.97089946	0.0495895	0.00022756783
0.012899258	0.84182304	0.043294918	0.00022756671
0.013096193	0.8062827	0.040995911	0.00022756707
0.013293128	0.83375961	0.041861601	0.00022756671
0.013490063	0.7525773	0.037952043	0.00022756707
0.013686999	0.66911763	0.03289457	0.00022756707
0.013883934	0.73236012	0.035806589	0.00022756671
0.014080869	0.56459332	0.027383888	0.00022756707
0.014277805	0.56235296	0.027080528	0.00022756671
0.014474739	0.60283691	0.02913435	0.0002275663
0.014671675	0.52370203	0.024655979	0.00022756707
0.014868611	0.53863639	0.025514068	0.00022756671
0.015065545	0.45494506	0.02121591	0.0002275663
0.015262481	0.44206008	0.020340977	0.00022756671
0.015459416	0.46153846	0.021437414	0.00022756595
0.01565635	0.4371002	0.020077879	0.00022756707
0.015853286	0.43312103	0.019807227	0.00022756554
0.016050221	0.40618557	0.018315146	0.00022756707
0.016247157	0.39676112	0.017764255	0.00022756707
0.016444093	0.38800001	0.017216761	0.00022756483
0.016641026	0.35341364	0.015719144	0.00022756707
0.016837962	0.35070139	0.015580021	0.00022756707
0.017034898	0.30544746	0.013413697	0.00022756554
0.017231833	0.3460803	0.015036846	0.00022756554
0.017428769	0.31688803	0.01372726	0.00022756483
0.017625703	0.2859813	0.01230112	0.00022756554
0.017822638	0.32029796	0.013747508	0.00022756554
0.018019574	0.31433824	0.013409266	0.00022756554
0.018216509	0.28102189	0.011951111	0.00022756554
0.018413445	0.27012521	0.011352512	0.00022756483
0.018610379	0.25971732	0.010862746	0.00022756554
0.018807314	0.26178011	0.010877746	0.00022756554
0.01900425	0.23743501	0.0098262215	0.00022756554
0.019201186	0.20454545	0.0085056983	0.00022756554
0.019398121	0.19597989	0.0079673138	0.00022756483
0.019595055	0.25593221	0.010491948	0.00022756554
0.019791991	0.1768595	0.0071379333	0.00022756554
0.019988926	0.2	0.0080812713	0.00022756554
0.020185862	0.20915033	0.008414709	0.00022756554
0.020382797	0.18312103	0.0072696102	0.00022756483
0.020579731	0.19579288	0.0078307409	0.00022756403
0.020776667	0.21473354	0.0084651066	0.00022756403
0.020973602	0.18622848	0.0073219175	0.00022756554
0.021170538	0.1828125	0.0071818521	0.00022756403
0.021367474	0.16892911	0.0065262429	0.0002275633
0.021564407	0.16873065	0.0066002831	0.00022756403
0.021761343	0.17040358	0.0065503591	0.00022756403
0.021958278	0.17194571	0.0066421116	0.00022756403
0.022155214	0.14537445	0.0055386187	0.00022756403
0.02235215	0.13517442	0.0051246253	0.0002275633
0.022549083	0.15565345	0.0059349407	0.00022756403
0.022746019	0.16595745	0.0062151076	0.00022756403
0.022942955	0.14490674	0.0054551256	0.00022756403
0.02313989	0.15275814	0.0057155131	0.00022756403
0.023336826	0.12552302	0.0046543865	0.0002275633
0.02353376	0.16033755	0.0059839305	0.00022756403
0.023730695	0.14789689	0.0054200292	0.00022756403
0.023927631	0.099310346	0.003660097	0.0002275625
0.024124566	0.12600537	0.0045829196	0.00022756403
0.024321502	0.1313673	0.0047832667	0.00022756179
0.024518436	0.12483221	0.004539113	0.0002275625
0.024715371	0.1198946	0.0043207156	0.0002275625
0.024912307	0.13077939	0.0047245068	0.0002275625
0.025109243	0.12148338	0.0043192324	0.0002275625
0.025306178	0.12677878	0.0045347507	0.00022756179
0.025503112	0.13409962	0.004765505	0.0002275625
0.025700048	0.094027951	0.003329894	0.0002275625
0.025896983	0.10050891	0.0035628041	0.0002275625
0.026093919	0.12561576	0.0043807607	0.00022756097
0.026290854	0.12779157	0.0044795824	0.00022756179
0.026487788	0.1	0.0034692488	0.0002275625
0.026684724	0.091687039	0.0031828205	0.00022756097
0.026881659	0.136419	0.0047330959	0.0002275625
0.027078595	0.12768497	0.0043850131	0.00022756097
0.027275531	0.1179302	0.0040686214	0.00022756179
0.027472464	0.10942957	0.0037112606	0.00022756097
0.0276694	0.11938534	0.0040841699	0.00022756097
0.027866336	0.10208817	0.0034548098	0.00022756097
0.028063271	0.096511625	0.0032696691	0.00022756097
0.028260207	0.10489511	0.0035600711	0.00022756026
0.028457141	0.099887766	0.0033281066	0.00022756097
0.028654076	0.10215664	0.0034215203	0.00022756097
0.028851012	0.11856823	0.0039472003	0.00022756097
0.029047947	0.11198208	0.0037268731	0.00022756097
0.029244883	0.078740157	0.0026206877	0.00022756026
0.029441817	0.079520695	0.0026059709	0.00022756097
0.029638752	0.11318681	0.0037337667	0.00022755946
0.029835688	0.091693632	0.0029900034	0.00022756097
0.030032624	0.10215054	0.0033318973	0.00022755946
0.030229559	0.097402595	0.0031861935	0.00022755875
0.030426493	0.09148936	0.0029666086	0.00022755946
0.030623429	0.08626198	0.0027952229	0.00022755946
0.030820364	0.081527345	0.002601637	0.00022755946
0.0310173	0.11461619	0.003698712	0.00022755946
0.031214235	0.0746888	0.0023881698	0.00022755946
0.031411171	0.093429156	0.0029772434	0.00022755875
0.031608105	0.095139608	0.0030429303	0.00022755571
0.031805038	0.10313448	0.0032628018	0.00022756017
0.032001976	0.06572295	0.0020737813	0.00022755875
0.03219891	0.086432159	0.0027236114	0.00022756017
0.032395847	0.090909094	0.002855116	0.00022755875
0.032592781	0.079443894	0.0024878478	0.00022755875
0.032789715	0.077299416	0.0024014513	0.00022756017
0.032986652	0.078817733	0.0024580939	0.00022755571
0.033183586	0.07692308	0.0023839297	0.00022755713
0.033380523	0.07032755	0.0021664298	0.00022755875
0.033577457	0.080924854	0.002496205	0.00022755571
0.033774391	0.09056244	0.0027808503	0.00022755713
0.033971328	0.073473282	0.0022543455	0.00022755571
0.034168262	0.081362344	0.0024881321	0.00022756017
0.0343652	0.10179076	0.0031090067	0.00022755571
0.034562133	0.073351905	0.0022208921	0.00022755571
0.034759067	0.071428575	0.0021616085	0.00022756017
0.034956004	0.081481479	0.0024638383	0.00022755571
0.035152938	0.077625573	0.0023320818	0.00022755713
0.035349876	0.07390511	0.0022188902	0.00022755571
0.035546809	0.094373867	0.0028294225	0.00022755571
0.035743743	0.072463766	0.0021675255	0.00022755713
0.035940681	0.066367716	0.0019749668	0.00022755571
0.036137614	0.060390763	0.0017864319	0.00022755713
0.036334552	0.077264652	0.0022893911	0.00022755266
0.036531486	0.082010582	0.0024224513	0.00022755266
0.036728419	0.071428575	0.0021076149	0.00022755713
0.036925357	0.072173916	0.0021157311	0.00022755571
0.037122291	0.059947871	0.0017541614	0.00022755713
0.037319228	0.076256499	0.0022326661	0.00022755571
0.037516162	0.078880407	0.0022842528	0.00022755266
0.037713096	0.053127676	0.0015420408	0.00022755713
0.037910033	0.067291312	0.0019516536	0.00022755266
0.038106967	0.076335877	0.0022106136	0.00022755409
0.038303904	0.071729958	0.0020720207	0.00022755266
0.038500838	0.061564058	0.0017640906	0.00022755266
0.038697772	0.066942148	0.0019124399	0.00022755409
0.038894709	0.071192056	0.0020369422	0.00022755266
0.039091643	0.07857734	0.0022473668	0.00022755409
0.03928858	0.06967213	0.0019834742	0.00022755266
0.039485514	0.069861904	0.0019803778	0.00022755266
0.039682448	0.083671808	0.0023716625	0.00022755409
0.039879385	0.062650606	0.0017634018	0.00022755266
0.040076319	0.069600001	0.0019574987	0.00022755409
0.040273257	0.074638844	0.0021031988	0.00022754962
0.04047019	0.05807478	0.001626483	0.00022754962
0.040667124	0.072279587	0.0020244084	0.00022755409
0.040864062	0.082095385	0.0022844225	0.00022755266
0.041060995	0.055987559	0.0015500577	0.00022755409
0.041257933	0.072542898	0.0020147392	0.00022754962
0.041454867	0.05680934	0.0015732989	0.00022755266
0.0416518	0.065369651	0.0018128774	0.00022755409
0.041848738	0.064885497	0.0017818229	0.00022754962
0.042045671	0.069201522	0.0018969112	0.00022754801
0.042242609	0.068441063	0.0018768522	0.00022754657
0.042439543	0.059984814	0.0016425028	0.00022754353
0.042636476	0.060105182	0.0016372582	0.00022754801
0.042833414	0.073795177	0.0020145709	0.00022754657
0.043030348	0.072442122	0.0019693652	0.00022754801
0.043227285	0.070162483	0.0018967593	0.00022754353
0.043424219	0.058953576	0.0015901666	0.00022754353
0.043621153	0.074264705	0.0020041305	0.00022754801
0.04381809	0.06818182	0.0018359886	0.00022754353
0.044015024	0.065837599	0.0017712024	0.00022754495
0.044211961	0.063768119	0.0017067484	0.00022754353
0.044408895	0.057553958	0.0015343481	0.00022754353
0.044605829	0.061063219	0.0016271388	0.00022754495
0.044802766	0.063127689	0.0016815349	0.00022754353
0.0449997	0.06709493	0.0017826033	0.00022754495
0.045196638	0.06501767	0.0017179799	0.00022754353
0.045393571	0.058865249	0.0015580445	0.00022754353
0.045590505	0.070777856	0.0018646226	0.00022754495
0.045787442	0.061009817	0.0016062298	0.00022754048
0.045984376	0.055555556	0.0014544225	0.00022754191
0.046181314	0.06939625	0.0018188498	0.00022754353
0.046378247	0.069751382	0.0018229322	0.00022754048
0.046575181	0.058011051	0.0015146135	0.00022754191
0.046772119	0.065798491	0.0017134553	0.00022754353
0.046969052	0.081688225	0.0021215072	0.00022754495
0.04716599	0.068847992	0.001788865	0.00022754048
0.047362924	0.063342318	0.0016355049	0.00022754048
0.047559857	0.055630028	0.0014309322	0.00022754495
0.047756795	0.059100065	0.001521576	0.00022754048
0.047953729	0.047619049	0.0012239328	0.00022754495
0.048150666	0.059721302	0.0015284375	0.00022754048
0.0483476	0.074983411	0.0019210486	0.00022754048
0.048544534	0.055009823	0.0013981813	0.00022754191
0.048741471	0.07976269	0.0020365689	0.00022753744
0.048938405	0.05602606	0.0014197881	0.00022754191
0.049135342	0.057011794	0.0014507318	0.00022754048
0.049332276	0.051198963	0.0012921774	0.00022753744
0.04952921	0.05045278	0.0012738321	0.00022753887
0.049726147	0.052869115	0.0013324514	0.00022753744
0.049923081	0.058264725	0.0014557786	0.00022754191
0.050120018	0.05882353	0.0014773075	0.00022753744
0.050316952	0.066538706	0.0016732755	0.00022753744
0.050513886	0.074285716	0.0018610999	0.00022753887
0.050710823	0.066582121	0.0016662669	0.00022753744
0.050907757	0.062073246	0.0015369159	0.00022753887
0.051104695	0.061211742	0.0015194198	0.00022753744
0.051301628	0.064294629	0.0015964549	0.00022753744
0.051498562	0.064294629	0.0015953874	0.00022753887
0.0516955	0.058750775	0.0014505081	0.00022753744
0.051892433	0.05630355	0.0013837131	0.00022753887
0.052089371	0.046296295	0.0011395999	0.0002275344
0.052286305	0.055251975	0.0013510464	0.00022753744
0.052483238	0.055319149	0.0013531795	0.00022753583
0.052680176	0.052887537	0.0012947752	0.0002275344
0.052877109	0.052279636	0.001280109	0.00022753887
0.053074047	0.056660637	0.0013818794	0.0002275344
0.053270981	0.047761194	0.0011574489	0.00022753744
0.053467914	0.042959426	0.001039288	0.00022753887
0.053664852	0.058608059	0.0014382956	0.0002275344
0.053861786	0.060681116	0.0015004933	0.00022753583
0.054058723	0.064757161	0.0016063612	0.0002275344
0.054255657	0.055040199	0.0013586782	0.0002275344
0.054452591	0.060037524	0.0014915749	0.00022753583
0.054649528	0.045539614	0.0011282384	0.0002275344
0.054846462	0.050783698	0.0012619558	0.00022753583
0.055043399	0.049149338	0.001223551	0.00022753136
0.055240333	0.055590652	0.0013882335	0.0002275344
0.055437267	0.052299935	0.0013022491	0.00022753583
0.055634204	0.053817272	0.0013355416	0.00022753136
0.055831138	0.06269791	0.0015677528	0.00022753279
0.056028076	0.042794209	0.0010643253	0.00022753136
0.056225009	0.060050569	0.0014994257	0.00022753136
0.056421943	0.049776644	0.0012464295	0.00022753279
0.05661888	0.057825267	0.0014388181	0.00022753136
0.056815814	0.052168448	0.0012982973	0.00022753279
0.057012752	0.048101265	0.0012001888	0.00022753136
0.057209685	0.045454547	0.0011324886	0.00022752832
0.057406619	0.054924242	0.0013688289	0.00022753279
0.057603557	0.05495894	0.0013710468	0.00022753136
0.05780049	0.049367089	0.001231693	0.00022753279
0.057997428	0.05339196	0.0013274999	0.00022752832
0.058194362	0.0625	0.0015585582	0.00022752832
0.058391295	0.049273532	0.0012288084	0.00022752974
0.058588233	0.045739349	0.0011348034	0.00022752832
0.058785167	0.043037973	0.0010727249	0.00022752974
0.058982104	0.059082337	0.0014710937	0.00022752832
0.059179038	0.067839198	0.0016905322	0.00022752832
0.059375972	0.066079296	0.0016478775	0.00022752974
0.059572909	0.055764411	0.0013861207	0.00022752528
0.059769843	0.057340894	0.0014285768	0.00022752974
0.05996678	0.06195787	0.0015312338	0.00022752528
0.060163714	0.046628859	0.0011596836	0.00022752528
0.060360648	0.052369077	0.0012981392	0.00022752974
0.060557585	0.050093926	0.0012442792	0.00022752528
0.060754519	0.051649034	0.0012783863	0.0002275267
0.060951456	0.036828965	0.00090993207	0.00022752528
0.06114839	0.039825764	0.00098304916	0.00022752528
0.061345324	0.052303862	0.0012953416	0.0002275267
0.061542261	0.048447207	0.0011976208	0.00022752528
0.061739195	0.053482588	0.0013243726	0.0002275267
0.061936133	0.045877248	0.0011321729	0.00022752528
0.062133066	0.061262377	0.0015145214	0.00022752528
0.06233	0.054153845	0.0013338773	0.00022752528
0.062526934	0.051915947	0.0012813237	0.0002275251
0.062723875	0.044665013	0.0011031044	0.00022751919
0.062920809	0.044389643	0.0010920583	0.00022752528
0.063117743	0.045877248	0.0011309086	0.00022751919
0.063314676	0.052631579	0.0012928824	0.00022751919
0.06351161	0.062309101	0.0015312856	0.00022752814
0.063708551	0.054567751	0.0013422498	0.00022751919
0.063905485	0.040173054	0.00098917133	0.00022751919
0.064102419	0.042682927	0.0010447912	0.00022751919
0.064299352	0.039191671	0.0009603785	0.00022752528
0.064496286	0.039658327	0.0009692802	0.00022752205
0.064693227	0.054678008	0.0013381002	0.00022751919
0.064890161	0.045454547	0.0011096596	0.00022751919
0.065087095	0.046426389	0.0011390413	0.00022752528
0.065284029	0.061698228	0.0015152633	0.00022752528
0.065480962	0.042372882	0.001032996	0.00022752205
0.065677904	0.042117931	0.0010230462	0.00022752528
0.065874837	0.046581972	0.0011354907	0.00022751919
0.066071771	0.054184228	0.0013203424	0.00022751919
0.066268705	0.048972189	0.0011950253	0.00022751919
0.066465639	0.052378085	0.0012762793	0.00022752205
0.06666258	0.049101796	0.00119149	0.00022751919
0.066859514	0.054512415	0.0013323588	0.00022751919
0.067056447	0.05231867	0.0012666377	0.00022751919
0.067253381	0.053795576	0.001306323	0.00022751919
0.067450315	0.048416018	0.0011747215	0.00022751596
0.067647256	0.037724551	0.00091441168	0.00022751919
0.06784419	0.04916067	0.0011948977	0.00022751919
0.068041123	0.043786984	0.0010576317	0.00022751311
0.068238057	0.046828691	0.001131755	0.00022751311
0.068434991	0.055852644	0.001352265	0.00022752205
0.068631932	0.044326242	0.0010687851	0.00022751311
0.068828866	0.043062203	0.001043636	0.00022751311
0.0690258	0.046756282	0.0011216394	0.00022751311
0.069222733	0.041322313	0.00099625776	0.00022751311
0.069419667	0.037234042	0.00089709269	0.00022751596
0.069616608	0.036928486	0.00088607043	0.00022751311
0.069813542	0.047563124	0.0011445201	0.00022751311
0.070010476	0.054770317	0.0013199063	0.00022751311
0.07020741	0.045481395	0.0010967966	0.00022751311
0.070404343	0.041016754	0.00097759254	0.00022752205
0.070601285	0.05078809	0.001219087	0.00022751311
0.070798218	0.035444509	0.00084668194	0.00022751311
0.070995152	0.049266864	0.0011846654	0.00022751311
0.071192086	0.055458259	0.0013325183	0.00022751311
0.071389019	0.058688149	0.0013994661	0.00022751596
0.071585961	0.054524362	0.0013056514	0.00022750701
0.071782894	0.052601155	0.0012568219	0.00022751311
0.071979828	0.048752178	0.0011664816	0.00022751311
0.072176762	0.050720461	0.0012098253	0.00022751311
0.072373696	0.049283668	0.0011701951	0.00022751596
0.072570637	0.039420288	0.00094156974	0.00022751311
0.072767571	0.051165435	0.0012121391	0.00022750701
0.072964504	0.053240743	0.0012727916	0.00022750701
0.073161438	0.041453719	0.00098057592	0.00022751311
0.073358372	0.049199086	0.0011687872	0.00022750988
0.073555313	0.054723501	0.0013055338	0.00022750701
0.073752247	0.045788582	0.0010810577	0.00022751311
0.073949181	0.05821918	0.0013827221	0.00022750701
0.074146114	0.054895304	0.0012974448	0.00022751311
0.074343048	0.042213347	0.0010000082	0.00022750988
0.074539989	0.045996591	0.0010887707	0.00022750701
0.074736923	0.043040805	0.0010102115	0.00022750701
0.074933857	0.070574842	0.0016761618	0.00022750701
0.07513079	0.040540539	0.00095424039	0.00022750701
0.075327724	0.042229731	0.00099384901	0.0002275038
0.075524665	0.046197183	0.0010886418	0.00022750701
0.075721599	0.04454343	0.0010427827	0.00022750093
0.075918533	0.043918919	0.001034359	0.00022750701
0.076115467	0.042529378	0.00099830155	0.00022750701
0.0763124	0.044667784	0.0010483169	0.00022750988
0.076509342	0.036151279	0.00084560883	0.00022750701
0.076706275	0.035535812	0.00083060545	0.00022750701
0.076903209	0.035313901	0.00082880125	0.00022750701
0.077100143	0.036914602	0.00085906102	0.00022750093
0.077297077	0.041019958	0.00095860689	0.0002275038
0.077494018	0.04115684	0.00096341019	0.00022750093
0.077690952	0.040131941	0.00093315355	0.00022750093
0.077887885	0.044568244	0.0010434886	0.00022750093
0.078084819	0.043572985	0.0010095257	0.00022750093
0.078281753	0.052283984	0.0012191994	0.0002275038
0.078478694	0.039625756	0.00092230004	0.00022750093
0.078675628	0.040961225	0.00094991369	0.00022750093
0.078872561	0.049062844	0.0011435807	0.00022750093
0.079069495	0.053405996	0.0012397757	0.00022750093
0.079266429	0.037097655	0.00085995538	0.0002275038
0.07946337	0.053980369	0.0012532762	0.00022750093
0.079660304	0.03731747	0.00086029887	0.00022750093
0.079857238	0.04533042	0.0010521677	0.00022750093
0.080054171	0.049756624	0.0011497603	0.00022750093
0.080251105	0.044141691	0.0010234091	0.0002275038
0.080448046	0.045822103	0.0010568763	0.00022749485
0.08064498	0.032119915	0.00073651946	0.00022750093
0.080841914	0.03902439	0.00090138073	0.00022750093
0.081038848	0.044527896	0.001023893	0.00022749485
0.081235781	0.047619049	0.0011008418	0.00022749772
0.081432723	0.053361792	0.0012254512	0.00022749485
0.081629656	0.047466666	0.0010890571	0.00022749485
0.08182659	0.051955007	0.0011951096	0.00022749485
0.082023524	0.044172432	0.0010122509	0.00022749485
0.082220457	0.060929984	0.0014017149	0.00022749772
0.082417399	0.046399999	0.0010638169	0.00022749485
0.082614332	0.05002661	0.0011467894	0.00022749485
0.082811266	0.042485397	0.00097257562	0.00022749485
0.0830082	0.050000001	0.0011403029	0.00022749485
0.083205134	0.050739959	0.0011597095	0.00022749163
0.083402075	0.043317486	0.00098933186	0.00022749485
0.083599009	0.05800958	0.001331543	0.00022749485
0.083795942	0.049317945	0.0011235334	0.00022748877
0.083992876	0.05971713	0.0013599575	0.00022749485
0.08418981	0.05235602	0.0011914449	0.00022749772
0.084386751	0.059131347	0.0013458388	0.00022748877
0.084583685	0.04391009	0.00099734566	0.00022749485
0.084780619	0.052576784	0.0011927579	0.00022749485
0.084977552	0.050626304	0.0011496741	0.00022748877
0.085174486	0.049638055	0.0011217616	0.00022749163
0.085371427	0.050442018	0.0011432781	0.00022748877
0.085568361	0.051466804	0.0011608632	0.00022748877
0.085765295	0.04372428	0.00098470773	0.00022748877
0.085962228	0.045359749	0.0010287886	0.00022748877
0.086159162	0.042224512	0.0009509704	0.00022748555
0.086356103	0.037206933	0.00083395356	0.00022748877
0.086553037	0.040041067	0.00090011174	0.00022748877
0.086749971	0.050787203	0.0011377118	0.00022748877
0.086946905	0.045267489	0.001020433	0.00022748268
0.087143838	0.050684236	0.0011347125	0.00022749163
0.08734078	0.048954614	0.001098791	0.00022748877
0.087537713	0.037993923	0.00084918231	0.00022748268
0.087734647	0.046535153	0.0010399084	0.00022748877
0.087931581	0.050813008	0.0011391555	0.00022748877
0.088128515	0.044701155	0.00099513796	0.00022748555
0.088325456	0.062437061	0.0013941814	0.00022748268
0.08852239	0.044050634	0.00098496233	0.00022748268
0.088719323	0.037943084	0.00084152457	0.00022748268
0.088916257	0.041583166	0.00092482293	0.00022748268
0.089113191	0.04945055	0.0010995341	0.00022748555
0.089310132	0.045954045	0.0010208538	0.00022748268
0.089507066	0.047808766	0.0010604331	0.00022748268
0.089703999	0.048115078	0.0010653033	0.00022748268
0.089900933	0.056000002	0.0012461045	0.00022748268
0.090097867	0.047220856	0.0010409299	0.00022747947
0.090294808	0.053339981	0.0011846047	0.00022748268
0.090491742	0.045387272	0.0010023826	0.00022748268
0.090688676	0.053386059	0.0011808068	0.00022748268
0.090885609	0.059230011	0.0013098085	0.0002274766
0.091082543	0.054652881	0.0012065461	0.00022748268
0.091279477	0.036399409	0.00080156128	0.00022748555
0.091476418	0.040334482	0.00088850019	0.0002274766
0.091673352	0.037109375	0.00081408035	0.00022748268
0.091870286	0.046146292	0.0010163134	0.0002274766
0.092067219	0.043095004	0.00094735465	0.0002274766
0.092264153	0.040408958	0.00088579208	0.00022747947
0.092461094	0.05609756	0.0012333253	0.0002274766
0.092658028	0.048410758	0.0010645923	0.0002274766
0.092854962	0.048863087	0.0010689412	0.0002274766
0.093051895	0.048332527	0.0010569694	0.0002274766
0.093248829	0.047595922	0.0010435866	0.00022747337
0.09344577	0.050749153	0.0011098319	0.0002274766
0.093642704	0.05004859	0.0010975088	0.00022747052
0.093839638	0.040983606	0.00089432887	0.0002274766
0.094036572	0.041847043	0.00091234141	0.0002274766
0.094233505	0.048169557	0.001051308	0.00022747947
0.094430447	0.050766282	0.001105306	0.00022747052
0.09462738	0.055555556	0.0012144701	0.00022747052
0.094824314	0.051171687	0.0011135921	0.00022747052
0.095021248	0.056965057	0.0012401589	0.00022747052
0.095218182	0.048072346	0.0010429914	0.00022747337
0.095415123	0.042522695	0.00092374755	0.00022747052
0.095612057	0.043353979	0.00094049232	0.00022747052
0.09580899	0.044698052	0.00096861774	0.00022747052
0.096005924	0.044497609	0.00096730306	0.00022747052
0.096202858	0.048838314	0.0010578334	0.00022747337
0.096399799	0.039716311	0.00085754017	0.00022747052
0.096596733	0.034336783	0.00073890499	0.00022746444
0.096793666	0.045368619	0.00097984832	0.00022747052
0.0969906	0.043950852	0.0009497492	0.00022746444
0.097187534	0.044297833	0.00095629279	0.00022747337
0.097384475	0.046291921	0.00099972298	0.00022746444
0.097581409	0.042293232	0.00091078953	0.00022747052
0.097778343	0.043275941	0.00092773623	0.00022746444
0.097975276	0.050823528	0.001096709	0.00022746444
0.09817221	0.045708954	0.00098099839	0.00022746729
0.098369151	0.042432815	0.00091518828	0.00022746444
0.098566085	0.042612322	0.00091109757	0.00022746444
0.098763019	0.044496488	0.00095707015	0.00022746444
0.098959953	0.047178537	0.0010094082	0.00022746444
0.099156886	0.041108545	0.00087793288	0.00022746121
0.099353828	0.044351075	0.00095259544	0.00022746444
0.099550761	0.041821562	0.00089592964	0.00022745834
0.099747695	0.042876903	0.00091503927	0.00022745834
0.099944629	0.04255319	0.00090952817	0.00022745834
0.10014156	0.050114941	0.0010688823	0.00022746121
0.1003385	0.04014767	0.00085640908	0.00022745834
0.10053544	0.048623852	0.0010356973	0.00022746444
0.10073237	0.067379184	0.0014469484	0.00022745834
0.1009293	0.049954172	0.0010643756	0.00022746444
0.10112624	0.056363635	0.0011963084	0.00022746121
0.10132318	0.046875	0.00099938945	0.00022746444
0.10152011	0.044979554	0.00095322629	0.00022745834
0.10171705	0.046181984	0.00098187546	0.00022745834
0.10191398	0.041932542	0.00088969932	0.00022745834
0.10211091	0.041114666	0.00087330706	0.00022746121
0.10230786	0.046384722	0.00098394009	0.00022745834
0.10250479	0.043851718	0.0009268765	0.00022745226
0.10270172	0.037387386	0.00078807439	0.00022745226
0.10289866	0.038724374	0.00082093565	0.00022745226
0.10309559	0.036101084	0.00076153385	0.00022745512
0.10329253	0.037171353	0.00078568846	0.00022745226
0.10348947	0.041255604	0.00086834299	0.00022745834
0.1036864	0.044144142	0.00093203061	0.00022745226
0.10388333	0.039479587	0.00083131006	0.00022745226
0.10408027	0.041835357	0.00088230916	0.00022746121
0.10427721	0.030941704	0.00065005268	0.00022745226
0.10447414	0.040376849	0.00084958284	0.00022745226
0.10467108	0.04322638	0.00090760598	0.00022745226
0.10486801	0.04604381	0.00096833863	0.00022745226
0.10506494	0.037250556	0.00077925774	0.00022745512
0.10526188	0.051224943	0.0010756617	0.00022745226
0.10545882	0.037600715	0.00079038646	0.00022744617
0.10565575	0.038103677	0.00079634832	0.00022745226
0.10585269	0.044849023	0.00093976059	0.00022745226
0.10604962	0.042402826	0.00088602328	0.00022745512
0.10624656	0.042035397	0.0008791585	0.00022744617
0.10644349	0.050750222	0.0010607413	0.00022744617
0.10664043	0.045794804	0.00095565116	0.00022745226
0.10683736	0.0446705	0.00093396887	0.00022744617
0.1070343	0.045774646	0.00095546676	0.00022744904
0.10723124	0.048097946	0.0010007264	0.00022744617
0.10742817	0.042290747	0.00088241533	0.00022744617
0.1076251	0.046420824	0.00096189155	0.00022744617
0.10782204	0.049670331	0.0010363272	0.00022744617
0.10801897	0.046786182	0.00097327144	0.00022744904
0.10821591	0.048140045	0.0010020407	0.00022744617
0.10841285	0.046643417	0.00096847716	0.00022744617
0.10860978	0.050194722	0.0010392292	0.00022744009
0.10880671	0.047410008	0.00098808063	0.00022744009
0.10900365	0.044885628	0.0009273297	0.00022744904
0.10920059	0.042369217	0.00087591819	0.00022744009
0.10939752	0.044251628	0.00091693323	0.00022744009
0.10959446	0.050539955	0.001045599	0.00022744009
0.10979139	0.061251085	0.00127107	0.00022744009
0.10998832	0.051007286	0.0010516557	0.00022744296
0.11018527	0.05045278	0.0010428944	0.00022744009
0.1103822	0.055579491	0.0011485895	0.00022744009
0.11057913	0.06437768	0.0013288754	0.00022743401
0.11077607	0.055507746	0.0011463659	0.00022744009
0.110973	0.054940376	0.0011289006	0.00022743687
0.11116994	0.053014107	0.0010915409	0.00022743401
0.11136688	0.05952891	0.0012270448	0.00022743401
0.11156381	0.06678009	0.0013726692	0.00022743401
0.11176074	0.052136753	0.0010733797	0.00022743401
0.11195768	0.058524173	0.0012007107	0.00022744296
0.11215462	0.066267639	0.0013649274	0.00022743401
0.11235155	0.05942275	0.0012193621	0.00022743401
0.11254849	0.051920641	0.0010621916	0.00022743401
0.11274542	0.055884842	0.0011451	0.00022743401
0.11294235	0.065761559	0.0013500553	0.00022743687
0.11313929	0.059246719	0.0012143218	0.00022743401
0.11333623	0.053713806	0.0010958512	0.00022743401
0.11353316	0.061733615	0.0012650362	0.00022742792
0.1137301	0.062605046	0.0012787692	0.00022743401
0.11392703	0.06987448	0.0014247858	0.00022743079
0.11412397	0.078118436	0.0015960796	0.00022742792
0.1143209	0.064312734	0.0013140109	0.00022742792
0.11451784	0.066973627	0.0013655361	0.00022742792
0.11471477	0.068401173	0.0013966109	0.00022742792
0.11491171	0.070422538	0.001428498	0.00022743079
0.11510865	0.066777967	0.001359609	0.00022742792
0.11530558	0.069525398	0.0014141208	0.00022742792
0.11550251	0.061480552	0.0012528371	0.00022742792
0.11569945	0.063820973	0.0012948295	0.00022742792
0.11589638	0.067852713	0.0013759198	0.00022743079
0.11609332	0.061182305	0.0012393838	0.00022742792
0.11629026	0.060844369	0.0012336115	0.00022742792
0.11648719	0.066969819	0.0013565103	0.00022742184
0.11668412	0.057390586	0.0011615794	0.00022742184
0.11688106	0.064208783	0.0013023516	0.00022742471
0.117078	0.060444079	0.0012207156	0.00022742184
0.11727493	0.056897257	0.0011468118	0.00022742184
0.11747187	0.060171921	0.0012130449	0.00022742184
0.1176688	0.07626076	0.0015394342	0.00022742184
0.11786573	0.075907588	0.0015372499	0.00022742471
0.11806267	0.069007762	0.0013896732	0.00022742184
0.11825961	0.070053257	0.0014130607	0.00022742184
0.11845654	0.064476885	0.0012940547	0.00022742184
0.11865348	0.073667072	0.0014816404	0.00022742184
0.11885041	0.07087259	0.0014297072	0.00022741863
0.11904735	0.053846154	0.0010791506	0.00022741576
0.11924428	0.063873067	0.0012840088	0.00022741576
0.11944122	0.077669904	0.0015579452	0.00022741576
0.11963815	0.061332252	0.0012317359	0.00022741576
0.11983509	0.067898758	0.0013566389	0.00022741863
0.12003203	0.06421648	0.0012862732	0.00022741576
0.12022896	0.069483951	0.0013961084	0.00022741576
0.12042589	0.069230773	0.0013887706	0.00022741576
0.12062283	0.085370742	0.0017048456	0.00022741576
0.12081976	0.094263941	0.0018835264	0.00022741863
0.1210167	0.088399999	0.0017635497	0.00022741576
0.12121364	0.086833604	0.0017404865	0.00022740968
0.12141057	0.093013972	0.0018541134	0.00022740968
0.1216075	0.089049339	0.0017790589	0.00022741576
0.12180444	0.088773884	0.0017668222	0.00022741254
0.12200138	0.10043842	0.0020009459	0.00022740968
0.12219831	0.092252396	0.0018393574	0.00022741576
0.12239525	0.095841587	0.0019032286	0.00022741576
0.12259218	0.10307631	0.0020555565	0.00022740968
0.12278911	0.10465579	0.0020835318	0.00022741254
0.12298606	0.10166799	0.0020218689	0.00022740968
0.12318299	0.10411718	0.002067226	0.00022740968
0.12337992	0.11220086	0.0022180195	0.00022740968
0.12357686	0.13328044	0.0026501846	0.00022740968
0.12377379	0.14460687	0.0028701064	0.00022740646
0.12397073	0.15317805	0.0030393645	0.00022740968
0.12416767	0.21209741	0.0041990844	0.00022740359
0.1243646	0.27703762	0.0054794163	0.00022740359
0.12456153	0.42823344	0.0084985141	0.00022740359
0.12475847	0.68495297	0.013552996	0.00022740646
0.12495541	1.0669028	0.021158259	0.00022739463
0.12515233	1.6430805	0.032478847	0.00022740323
0.12534928	2.4585443	0.048496861	0.00022739751
0.12554622	3.5377395	0.069950804	0.00022739751
0.12574315	4.7120094	0.09288086	0.00022739751
0.12594008	5.9300508	0.11721227	0.00022739751
0.12613702	7.0462494	0.13889864	0.00022740968
0.12633395	7.6596489	0.15122779	0.00022740968
0.12653089	8.0054226	0.1575349	0.00022739751
0.12672782	7.9764295	0.15678465	0.00022739751
0.12692475	7.6927571	0.15179706	0.00022739751
0.12712169	7.1776419	0.14043519	0.00022740323
0.12731864	6.5785379	0.12970948	0.00022739751
0.12751557	5.7960753	0.11368404	0.00022739751
0.1277125	5.1942306	0.10185691	0.00022739751
0.12790944	4.5198917	0.088818692	0.00022739751
0.12810637	3.8185313	0.074859768	0.00022739751
0.1283033	3.1950939	0.062538996	0.00022739751
0.12850024	2.614795	0.051178254	0.00022739751
0.12869717	2.1334608	0.041707806	0.00022738535
0.12889411	1.64733	0.032277927	0.00022739751
0.12909104	1.2457209	0.024287313	0.00022740323
0.12928799	0.94938648	0.018583581	0.00022739751
0.12948492	0.66123533	0.012866115	0.00022739751
0.12968186	0.50401223	0.0098475525	0.00022738535
0.12987879	0.38690022	0.0075456356	0.00022738535
0.13007572	0.34430572	0.006693155	0.00022738535
0.13027266	0.31240487	0.0060896832	0.00022738535
0.13046959	0.28004536	0.0054401467	0.00022738535
0.13066652	0.26697004	0.0051949364	0.00022738535
0.13086346	0.23705104	0.0046053273	0.00022739751
0.13106039	0.23893474	0.0046234848	0.00022740323
0.13125734	0.21178707	0.0041256319	0.00022738535
0.13145427	0.21637866	0.0041897814	0.00022738535
0.13165121	0.20640302	0.0040015243	0.00022738535
0.13184814	0.18733609	0.0036222683	0.00022738535
0.13204508	0.18979745	0.003671848	0.00022738535
0.13224201	0.18731117	0.0036360952	0.00022738535
0.13243894	0.17189835	0.0033188458	0.00022738535
0.13263588	0.17585693	0.0033905748	0.00022738535
0.13283281	0.13986537	0.0027008574	0.00022738535
0.13302974	0.15793413	0.0030514344	0.00022739106
0.13322669	0.16641791	0.0032106	0.00022738535
0.13342363	0.153447	0.0029503489	0.00022738535
0.13362056	0.15150391	0.0029155994	0.00022738535
0.13381749	0.14871413	0.0028671792	0.00022737318
0.13401443	0.15215774	0.0029309357	0.00022737318
0.13421136	0.1283859	0.0024691122	0.00022738535
0.1344083	0.14554164	0.0027896876	0.00022737318
0.13460523	0.14227642	0.0027313959	0.00022737318
0.13480216	0.12899628	0.0024830475	0.00022737318
0.1349991	0.12777779	0.0024554555	0.0002273789
0.13519605	0.13024443	0.0024838247	0.00022737318
0.13539298	0.12810071	0.0024609296	0.00022737318
0.13558991	0.12307692	0.0023518619	0.00022737318
0.13578685	0.12715913	0.0024335783	0.00022737318
0.13598378	0.12303185	0.0023503823	0.00022737318
0.13618071	0.12371134	0.002370009	0.00022737318
0.13637765	0.12339802	0.0023573926	0.00022737318
0.13657458	0.11764706	0.0022450702	0.00022737318
0.13677152	0.11552478	0.0022013749	0.00022737318
0.13696845	0.10501453	0.0019980932	0.00022737318
0.13716538	0.10952903	0.0020889947	0.0002273789
0.13736233	0.12403952	0.0023689349	0.00022737318
0.13755926	0.10693642	0.0020287661	0.00022737318
0.1377562	0.10888565	0.0020740579	0.00022737318
0.13795313	0.10703919	0.0020352579	0.00022736102
0.13815007	0.10328639	0.0019591432	0.00022736102
0.138347	0.10261059	0.0019500812	0.00022737318
0.13854393	0.089568347	0.0016951015	0.00022737318
0.13874087	0.10254546	0.0019514627	0.00022736102
0.1389378	0.091696754	0.0017385498	0.00022736102
0.13913473	0.096381225	0.0018207697	0.00022736673
0.13933168	0.10280374	0.0019453777	0.00022737318
0.13952862	0.09120287	0.0017242258	0.00022737318
0.13972555	0.10247093	0.0019493848	0.00022736102
0.13992248	0.1044191	0.0019676336	0.00022736102
0.14011942	0.088203654	0.0016663024	0.00022736102
0.14031635	0.094778255	0.0017886144	0.00022737318
0.14051329	0.098465927	0.0018561333	0.00022736102
0.14071022	0.091137424	0.0017227725	0.00022736102
0.14090715	0.094613746	0.0017775994	0.00022736102
0.14110409	0.090324886	0.0016951382	0.00022736673
0.14130104	0.093280911	0.0017598877	0.00022736102
0.14149797	0.077604532	0.0014571073	0.00022736102
0.1416949	0.087264985	0.0016399887	0.00022734885
0.14189184	0.085865721	0.00161058	0.00022736102
0.14208877	0.074285716	0.0014002188	0.00022736102
0.1422857	0.088621058	0.0016651689	0.00022736102
0.14248264	0.089856088	0.0016797627	0.00022736102
0.14267957	0.090780139	0.0017058742	0.00022736102
0.14287651	0.085764498	0.0016044237	0.00022736102
0.14307344	0.084925689	0.0015939669	0.00022735457
0.14327039	0.083626144	0.0015640683	0.00022736102
0.14346732	0.077410273	0.0014485666	0.00022734885
0.14366426	0.082134083	0.0015351687	0.00022734885
0.14386119	0.084591083	0.0015813629	0.00022736102
0.14405812	0.081961468	0.0015304717	0.00022734885
0.14425506	0.081967212	0.0015273613	0.00022734885
0.14445199	0.084180988	0.0015730719	0.00022734885
0.14464892	0.085995086	0.0016076248	0.00022734885
0.14484586	0.079249218	0.0014740769	0.00022734885
0.14504279	0.072175734	0.0013442596	0.00022735457
0.14523974	0.071181752	0.0013197564	0.00022734885
0.14543667	0.084531747	0.0015785235	0.00022733668
0.14563361	0.086081222	0.0015989351	0.00022734885
0.14583054	0.086548485	0.0016096738	0.00022734885
0.14602748	0.081632651	0.0015141321	0.00022734885
0.14622441	0.078573897	0.0014584581	0.00022733668
0.14642134	0.07982032	0.0014801894	0.00022734885
0.14661828	0.079201102	0.0014662391	0.00022733668
0.14681521	0.071750432	0.0013323941	0.00022733668
0.14701214	0.073818557	0.0013674712	0.0002273424
0.14720909	0.080261797	0.0014860496	0.00022733668
0.14740603	0.068597034	0.0012698362	0.00022733668
0.14760296	0.067098096	0.0012348694	0.00022733668
0.14779989	0.064760596	0.0011985487	0.00022733668
0.14799683	0.069927663	0.0012942436	0.00022733668
0.14819376	0.074862637	0.0013839394	0.00022733668
0.1483907	0.062649779	0.0011559711	0.00022733668
0.14858763	0.071477197	0.0013154373	0.00022733668
0.14878456	0.065613188	0.001212521	0.00022733668
0.1489815	0.074576274	0.0013696851	0.0002273424
0.14917845	0.064395227	0.0011850906	0.00022733668
0.14937538	0.067871757	0.0012500659	0.00022733668
0.14957231	0.068066373	0.0012492544	0.00022733668
0.14976925	0.075684935	0.0013969893	0.00022733668
0.14996618	0.064037748	0.0011720944	0.00022733668
0.15016311	0.062033899	0.0011388628	0.00022732452
0.15036005	0.073104389	0.0013446702	0.00022732452
0.15055698	0.071091644	0.0013016402	0.00022733668
0.15075392	0.070700206	0.0013001258	0.00022733668
0.15095085	0.069439784	0.0012664003	0.00022733024
0.1511478	0.066015497	0.0012077399	0.00022732452
0.15134473	0.075752452	0.001389128	0.00022733668
0.15154167	0.072458908	0.0013238976	0.00022732452
0.1517386	0.062204193	0.0011402267	0.00022732452
0.15193553	0.067983925	0.0012409241	0.00022732452
0.15213247	0.066218488	0.0012106013	0.00022733668
0.1523294	0.069728464	0.0012733219	0.00022732452
0.15252633	0.068643786	0.0012496501	0.00022732452
0.15272327	0.071930408	0.0013122919	0.00022732452
0.1529202	0.064064063	0.001166991	0.00022733024
0.15311715	0.060697518	0.0011082564	0.00022732452
0.15331408	0.074111	0.0013478878	0.00022732452
0.15351102	0.070478722	0.0012816814	0.00022732452
0.15370795	0.064559065	0.001174512	0.00022731235
0.15390489	0.051247921	0.00093151606	0.00022732452
0.15410182	0.062520675	0.0011339078	0.00022732452
0.15429875	0.060132891	0.0010929273	0.00022732452
0.15449569	0.061420985	0.0011159482	0.00022731235
0.15469262	0.065850429	0.0011944826	0.00022731235
0.15488955	0.069169961	0.0012519981	0.00022731809
0.1550865	0.056982871	0.0010310729	0.00022732452
0.15528344	0.072233267	0.0013114978	0.00022731235
0.15548037	0.064590923	0.001172413	0.00022731235
0.1556773	0.055737704	0.0010062681	0.00022731235
0.15587424	0.057331137	0.001037566	0.00022731235
0.15607117	0.062989555	0.0011347876	0.00022731235
0.1562681	0.059017476	0.0010686063	0.00022731235
0.15646504	0.054862022	0.00099119684	0.00022732452
0.15666197	0.055264879	0.00099619525	0.00022731235
0.15685891	0.044132069	0.00079470308	0.00022731809
0.15705585	0.064274065	0.0011574571	0.00022731235
0.15725279	0.055992141	0.0010098362	0.00022731235
0.15744972	0.058517557	0.0010513871	0.00022731235
0.15764666	0.068033852	0.0012237247	0.00022731235
0.15784359	0.056721311	0.0010236022	0.00022731235
0.15804052	0.053501945	0.00096014747	0.00022731235
0.15823746	0.060606062	0.0010907579	0.00022731235
0.15843439	0.058596265	0.0010481062	0.00022731235
0.15863132	0.049935151	0.00089579745	0.00022730019
0.15882826	0.06514658	0.001172517	0.00022731809
0.15902521	0.056884293	0.0010191556	0.00022730019
0.15922214	0.059928734	0.0010749223	0.00022730019
0.15941907	0.05837075	0.0010416807	0.00022731235
0.15961601	0.053739075	0.00096329342	0.00022730019
0.15981294	0.064069539	0.0011459716	0.00022730019
0.16000988	0.056342565	0.0010075055	0.00022730019
0.16020681	0.053784218	0.00096188544	0.00022730019
0.16040374	0.064764351	0.0011560529	0.00022730019
0.16060068	0.051902	0.00092809153	0.00022730019
0.16079761	0.048803829	0.00086809893	0.00022730592
0.16099456	0.051036682	0.00090791314	0.00022730019
0.16119149	0.053749599	0.0009608526	0.00022730019
0.16138843	0.045091141	0.00080296921	0.00022730019
0.16158536	0.050945211	0.00090868608	0.00022730019
0.16178229	0.046711154	0.00082915102	0.00022728802
0.16197923	0.047862157	0.00085147249	0.00022728802
0.16217616	0.052765418	0.00093746971	0.00022728802
0.1623731	0.049347341	0.00087694946	0.00022728802
0.16257003	0.048873372	0.00086730201	0.00022728802
0.16276696	0.056861501	0.0010099156	0.00022730592
0.16296391	0.051143583	0.00090792729	0.00022728802
0.16316085	0.051882315	0.00091936928	0.00022730019
0.16335778	0.050300539	0.00089141983	0.00022728802
0.16355471	0.053577058	0.0009475617	0.00022728802
0.16375165	0.059393156	0.0010635545	0.00022728802
0.16394858	0.042838458	0.00077119609	0.00022728802
0.16414551	0.055501144	0.00099896232	0.00022728802
0.16434245	0.05353602	0.00096974062	0.00022728802
0.16453938	0.045212764	0.00082084356	0.00022728802
0.16473632	0.054460406	0.00099193689	0.00022729376
0.16493326	0.04481132	0.00081897055	0.00022728802
0.1651302	0.042938612	0.00078296557	0.00022727586
0.16532713	0.05232558	0.00096408237	0.00022728802
0.16552407	0.057210561	0.0010491225	0.00022727586
0.165721	0.055254236	0.0010135141	0.00022728802
0.16591793	0.042567801	0.00078507973	0.00022727586
0.16611487	0.056564964	0.0010433936	0.00022727586
0.1663118	0.048263889	0.00089565158	0.00022728802
0.16650873	0.040563766	0.00074842229	0.00022728802
0.16670567	0.051670685	0.00095536828	0.00022728159
0.16690262	0.048280653	0.00089583755	0.00022727586
0.16709955	0.049808428	0.00092584529	0.00022727586
0.16729648	0.050561797	0.00094362401	0.00022727586
0.16749342	0.048746519	0.00090589962	0.00022727586
0.16769035	0.0447709	0.00083361886	0.00022727586
0.16788729	0.05049435	0.00094471191	0.00022727586
0.16808422	0.047983311	0.00089117332	0.00022727586
0.16828115	0.05171803	0.00096958003	0.00022727586
0.16847809	0.053389534	0.00099613448	0.00022726369
0.16867502	0.046561606	0.00087721966	0.00022728159
0.16887197	0.050372474	0.00094480207	0.00022727586
0.1690689	0.047669493	0.0008918086	0.00022726369
0.16926584	0.054015636	0.0010145515	0.00022727586
0.16946277	0.035612535	0.00066806114	0.00022727586
0.1696597	0.038475368	0.00072592474	0.00022726369
0.16985664	0.058781616	0.0011059032	0.00022726369
0.17005357	0.041800644	0.00078639184	0.00022727586
0.17025051	0.048149478	0.00090849586	0.00022726369
0.17044744	0.049480099	0.00093305251	0.00022726369
0.17064437	0.047207206	0.00089261372	0.00022726943
0.17084132	0.05075594	0.00095900998	0.00022727586
0.17103826	0.045173042	0.00085836614	0.00022726369
0.17123519	0.041259501	0.00078089739	0.00022726369
0.17143212	0.050414115	0.00095254113	0.00022726369
0.17162906	0.044154905	0.00083615253	0.00022726369
0.17182599	0.045470949	0.00085976045	0.00022726369
0.17202292	0.042709868	0.0008153416	0.00022726369
0.17221986	0.046823956	0.00088792248	0.00022726369
0.17241679	0.036821	0.00069926697	0.00022726369
0.17261373	0.043383159	0.00082417898	0.00022725726
0.17281067	0.049872588	0.00094753283	0.00022726369
0.17300761	0.045854732	0.0008740495	0.00022726369
0.17320454	0.048469387	0.00092144252	0.00022725153
0.17340147	0.047636632	0.00091141788	0.00022725153
0.17359841	0.045337263	0.00086651725	0.00022725153
0.17379534	0.042600073	0.00081232126	0.00022726369
0.17399228	0.043637697	0.00083174056	0.00022726369
0.17418921	0.052785926	0.0010065251	0.00022725153
0.17438614	0.053219203	0.0010226681	0.00022725153
0.17458308	0.05199115	0.00099453714	0.00022725726
0.17478003	0.037023325	0.00070822623	0.00022725153
0.17497696	0.037338264	0.0007139846	0.00022725153
0.17517389	0.0429831	0.00081993866	0.00022725153
0.17537083	0.046084676	0.00088779849	0.00022723936
0.17556776	0.044313148	0.00084743439	0.00022723936
0.17576469	0.045827124	0.00088007172	0.00022723936
0.17596163	0.040358745	0.00077603199	0.00022725153
0.17615856	0.047866419	0.00091796566	0.00022725153
0.1763555	0.052474879	0.0010079396	0.00022725153
0.17655243	0.041202672	0.00078993791	0.00022724509
0.17674938	0.042824943	0.00082595722	0.00022723936
0.17694631	0.041619796	0.00080189965	0.00022723936
0.17714325	0.04264871	0.00082067179	0.00022725153
0.17734018	0.041682314	0.00080370723	0.00022723936
0.17753711	0.035329118	0.00067729771	0.00022723936
0.17773405	0.052216377	0.0010076473	0.00022723936
0.17793098	0.046037737	0.00089014729	0.00022723936
0.17812791	0.044277672	0.00085366267	0.00022723936
0.17832485	0.045129746	0.00087084749	0.00022723936
0.17852178	0.035378247	0.00068195019	0.00022724509
0.17871873	0.041525103	0.00080274697	0.00022723936
0.17891566	0.042513169	0.00082038873	0.00022723936
0.1791126	0.048734415	0.00094247871	0.00022722721
0.17930953	0.045300115	0.00087609107	0.00022723936
0.17950647	0.039423805	0.00076337904	0.00022723936
0.1797034	0.038563326	0.00074606709	0.00022723936
0.17990033	0.041493777	0.00080143672	0.00022723936
0.18009727	0.041064639	0.00079634506	0.00022722721
0.1802942	0.040893599	0.00079158018	0.00022722721
0.18049113	0.041331802	0.00080440898	0.00022723294
0.18068808	0.036756348	0.00071110064	0.00022722721
0.18088502	0.046987496	0.00091072492	0.00022722721
0.18108195	0.040777437	0.00079176918	0.00022722721
0.18127888	0.047510453	0.00092211849	0.00022722721
0.18147582	0.040076334	0.00077893917	0.00022722721
0.18167275	0.043626707	0.00084528152	0.00022722721
0.18186969	0.03908046	0.00076090451	0.00022722721
0.18206662	0.046779141	0.00091167737	0.00022722721
0.18226355	0.042013627	0.00081350998	0.00022721505
0.18246049	0.048331417	0.00094204227	0.00022723294
0.18265744	0.04238259	0.00082371052	0.00022721505
0.18285437	0.053804766	0.0010504102	0.00022722721
0.1830513	0.042323969	0.00082575012	0.00022722721
0.18324824	0.038476191	0.00074665336	0.00022721505
0.18344517	0.051114526	0.00099767419	0.00022721505
0.1836421	0.046395704	0.0009044109	0.00022721505
0.18383904	0.034230769	0.00066741114	0.00022721505
0.18403597	0.040353574	0.00078682043	0.00022721505
0.18423291	0.04809542	0.00093926396	0.00022721505
0.18442984	0.048818287	0.00095680117	0.00022722078
0.18462679	0.047162578	0.0009194999	0.00022721505
0.18482372	0.04704975	0.00091935106	0.00022721505
0.18502066	0.042275172	0.00082459778	0.00022721505
0.18521759	0.037896365	0.00074131537	0.00022721505
0.18541452	0.053059645	0.0010398633	0.00022721505
0.18561146	0.033551872	0.00065460923	0.00022721505
0.18580839	0.040863533	0.00079825585	0.00022721505
0.18600532	0.03910182	0.00076478889	0.00022720288
0.18620226	0.041909195	0.00082111236	0.00022721505
0.18639919	0.038729668	0.00075790734	0.00022722078
0.18659614	0.034496125	0.00067475624	0.00022720288
0.18679307	0.036271449	0.00071142853	0.00022720288
0.18699001	0.041747198	0.00081628468	0.00022720288
0.18718694	0.036950603	0.00072454457	0.00022720288
0.18738388	0.046082951	0.00089877553	0.00022720288
0.18758081	0.048254218	0.00095097773	0.00022721505
0.18777774	0.033035368	0.00064718793	0.00022720288
0.18797468	0.038551401	0.00075634412	0.00022720288
0.18817161	0.037412316	0.00073404104	0.00022719071
0.18836854	0.041021671	0.00080289476	0.00022720861
0.18856549	0.04523997	0.00089246826	0.00022719071
0.18876243	0.03697937	0.00072547229	0.00022720288
0.18895936	0.038596492	0.00075774983	0.00022720288
0.18915629	0.046502542	0.00091511849	0.00022719071
0.18935323	0.044123389	0.00086751155	0.00022719071
0.18955016	0.038446449	0.00075727748	0.00022720288
0.1897471	0.040808395	0.0007999416	0.00022719071
0.18994403	0.037167449	0.00073085079	0.00022720288
0.19014096	0.040567152	0.00080041192	0.00022719071
0.1903379	0.039314907	0.00077158533	0.00022719646
0.19053484	0.040961009	0.00080839009	0.00022719071
0.19073178	0.04127726	0.0008101195	0.00022719071
0.19092871	0.039732493	0.00078383501	0.00022719071
0.19112565	0.042292491	0.00083653029	0.00022719071
0.19132258	0.038191739	0.00074960553	0.00022719071
0.19151951	0.034265459	0.00067533477	0.00022719071
0.19171645	0.035349566	0.00069620012	0.00022719071
0.19191338	0.038204018	0.00075401441	0.00022717856
0.19211031	0.041568626	0.0008187872	0.00022719071
0.19230725	0.037298784	0.00073481089	0.00022719646
0.1925042	0.041286226	0.00081826741	0.00022719071
0.19270113	0.043666404	0.00086149486	0.00022719071
0.19289806	0.042142577	0.00083208585	0.00022719071
0.193095	0.030160595	0.00059294241	0.00022717856
0.19329193	0.035728462	0.00070707093	0.00022719071
0.19348887	0.039952531	0.00079004274	0.00022717856
0.1936858	0.036570977	0.00072085124	0.00022717856
0.19388273	0.036700867	0.00072469551	0.00022717856
0.19407967	0.038765822	0.00076624961	0.00022717856
0.1942766	0.03387804	0.00067163998	0.0002271843
0.19447355	0.039514866	0.00077740307	0.00022717856
0.19467048	0.040824417	0.00080803892	0.00022717856
0.19486742	0.034810126	0.00068753748	0.0002271664
0.19506435	0.045689311	0.00090579962	0.0002271664
0.19526128	0.037096132	0.00073634961	0.0002271664
0.19545822	0.033685859	0.00066229468	0.0002271664
0.19565515	0.040048059	0.00079702045	0.0002271664
0.19585209	0.03293651	0.00065141282	0.0002271664
0.19604902	0.037212986	0.00073594193	0.0002271664
0.19624595	0.032270916	0.00063987507	0.00022717213
0.1964429	0.033490937	0.00066006719	0.00022717856
0.19663984	0.036458332	0.00072525477	0.0002271664
0.19683677	0.037139472	0.00073342555	0.0002271664
0.1970337	0.033546325	0.00066604302	0.0002271664
0.19723064	0.034167659	0.00067664892	0.0002271664
0.19742757	0.043288324	0.00085821381	0.0002271664
0.1976245	0.034524288	0.00068746012	0.00022715423
0.19782144	0.041963577	0.00083033601	0.0002271664
0.19801837	0.033945687	0.00067403121	0.0002271664
0.19821531	0.032309532	0.00064082601	0.00022715998
0.19841225	0.040207006	0.00079768308	0.0002271664
0.19860919	0.041633308	0.00082845398	0.00022715423
0.19880612	0.030122869	0.00059544638	0.00022715423
0.19900306	0.038600724	0.00076963566	0.00022715423
0.19919999	0.038691662	0.00076775509	0.00022715423
0.19939692	0.045418326	0.0009019089	0.00022715423
0.19959386	0.033870969	0.0006756389	0.0002271664
0.19979079	0.029856687	0.00059119874	0.00022715423
0.19998772	0.036472946	0.00072586839	0.00022715423
0.20018466	0.035486445	0.00070402416	0.00022715998
0.20038161	0.041013271	0.00081813236	0.00022715423
0.20057854	0.030012004	0.00059603364	0.00022715423
0.20077547	0.036755893	0.00072968379	0.00022715423
0.20097241	0.030205397	0.00060202193	0.00022715423
0.20116934	0.031948883	0.0006344904	0.00022715423
0.20136628	0.027364185	0.0005445127	0.00022714208
0.20156321	0.036429144	0.00072420662	0.00022715423
0.20176014	0.036678758	0.00073139515	0.00022714208
0.20195708	0.034027223	0.000675797	0.00022715423
0.20215401	0.032490976	0.00064643216	0.00022715998
0.20235096	0.039468385	0.00078767486	0.00022714208
0.20254789	0.041616648	0.0008278793	0.00022714208
0.20274483	0.029614605	0.00059205171	0.00022714208
0.20294176	0.034013607	0.0006761502	0.00022714208
0.20313869	0.039611965	0.00079181063	0.00022714208
0.20333563	0.037979797	0.00075828721	0.00022714208
0.20353256	0.03464755	0.00068666367	0.00022712992
0.2037295	0.032087732	0.0006419823	0.00022712992
0.20392643	0.036443733	0.00072464178	0.00022714208
0.20412336	0.037337661	0.00074770488	0.00022714782
0.20432031	0.039097138	0.00078036083	0.00022714208
0.20451725	0.03127506	0.00062131346	0.00022714208
0.20471418	0.027213648	0.00054433628	0.00022712992
0.20491111	0.032387044	0.00064333261	0.00022714208
0.20510805	0.033726126	0.00067508075	0.00022712992
0.20530498	0.041599356	0.00083171338	0.00022712992
0.20550191	0.036531512	0.00072770665	0.00022712992
0.20569885	0.048163265	0.00096791674	0.00022712992
0.20589578	0.036086608	0.00071800011	0.00022712992
0.20609272	0.038696539	0.00077615789	0.00022713565
0.20628966	0.037887949	0.00075657747	0.00022712992
0.2064866	0.039350912	0.00078805676	0.00022711777
0.20668353	0.048373982	0.00097036624	0.00022712992
0.20688047	0.046333604	0.00092517078	0.00022712992
0.2070774	0.029983792	0.00059913646	0.00022711777
0.20727433	0.036246475	0.00072277727	0.00022711777
0.20747127	0.035030551	0.00070283125	0.00022711777
0.2076682	0.03168156	0.00063378515	0.00022712992
0.20786513	0.027890056	0.00055628415	0.00022712992
0.20806207	0.036237784	0.00072678307	0.0002271235
0.20825902	0.037141703	0.00074138178	0.00022711777
0.20845595	0.029339854	0.00058791839	0.00022711777
0.20865288	0.033535354	0.0006692615	0.00022711777
0.20884982	0.031033074	0.00062242249	0.00022711777
0.20904675	0.034174126	0.00068443606	0.00022711777
0.20924369	0.032860041	0.0006572759	0.0002271056
0.20944062	0.031186715	0.00062314211	0.00022711777
0.20963755	0.036076207	0.00072192692	0.00022711777
0.20983449	0.023848685	0.00047892696	0.00022711777
0.21003142	0.029220778	0.00058411364	0.00022711133
0.21022837	0.038273614	0.00076763274	0.00022711777
0.2104253	0.035452321	0.0007111103	0.00022711777
0.21062224	0.043933898	0.00087681395	0.0002271056
0.21081917	0.036258757	0.00073138351	0.0002271056
0.2110161	0.03360324	0.0006716905	0.0002271056
0.21121304	0.035423454	0.00070976617	0.0002271056
0.21140997	0.033836119	0.00067898555	0.0002271056
0.2116069	0.030228758	0.00060615735	0.0002271056
0.21180384	0.036021285	0.00072411448	0.0002271056
0.21200077	0.036363635	0.00072619406	0.00022711133
0.21219772	0.034979425	0.00070486002	0.00022709343
0.21239465	0.038208708	0.00076990831	0.0002271056
0.21259159	0.036555644	0.00073222886	0.0002271056
0.21278852	0.035510205	0.00071189785	0.0002271056
0.21298546	0.043425325	0.00087044638	0.00022709343
0.21318239	0.044554457	0.00089984492	0.00022709343
0.21337932	0.039772727	0.00079663651	0.00022709343
0.21357626	0.031467102	0.00063167384	0.0002271056
0.21377319	0.037556749	0.00075818785	0.0002271056
0.21397012	0.02971103	0.00059449242	0.00022709918
0.21416707	0.02451982	0.00049093628	0.00022709343
0.21436401	0.028536486	0.00057180226	0.00022709343
0.21456094	0.03697617	0.00074508815	0.00022709343
0.21475787	0.038177341	0.00076851004	0.00022708128
0.21495481	0.031875767	0.00063930213	0.00022709343
0.21515174	0.03318312	0.00066668517	0.00022709343
0.21534868	0.039295949	0.0007905243	0.00022708128
0.21554561	0.037052285	0.00074682961	0.00022709343
0.21574254	0.037990198	0.00076322287	0.00022708128
0.21593948	0.039917696	0.00080505956	0.00022709918
0.21613643	0.041050903	0.00082689757	0.00022708128
0.21633336	0.035670355	0.00071796949	0.00022708128
0.21653029	0.03697617	0.0007448087	0.00022708128
0.21672723	0.036719706	0.0007370722	0.00022709343
0.21692416	0.035463918	0.00071542541	0.00022708128
0.21712109	0.028336756	0.00056958228	0.00022708128
0.21731803	0.038603697	0.00077776407	0.00022708128
0.21751496	0.039110746	0.00078900886	0.00022708128
0.2177119	0.041955192	0.00084224873	0.00022708128
0.21790883	0.040714584	0.00082493108	0.00022708702
0.21810578	0.036356211	0.00073016237	0.00022708128
0.21830271	0.034710743	0.00070062245	0.00022708128
0.21849965	0.029218107	0.0005880589	0.00022706912
0.21869658	0.032324057	0.00064908864	0.00022708128
0.21889351	0.034825869	0.00070451637	0.00022706912
0.21909045	0.034412127	0.00069179834	0.00022706912
0.21928738	0.035905901	0.00072489976	0.00022706912
0.21948431	0.034653466	0.0006992906	0.00022706912
0.21968125	0.036169339	0.00072810712	0.00022706912
0.21987818	0.027651671	0.00055740692	0.00022707487
0.22007513	0.037658617	0.00075736782	0.00022706912
0.22027206	0.036084611	0.00073022145	0.00022706912
0.220469	0.035714287	0.00071891141	0.00022706912
0.22066593	0.029801324	0.00060184539	0.00022705697
0.22086287	0.033347055	0.00067204802	0.00022705697
0.2210598	0.02843016	0.00057252339	0.00022705697
0.22125673	0.028961523	0.00058426289	0.00022705697
0.22145367	0.032644629	0.00065866258	0.00022705697
0.2216506	0.033884298	0.00068420923	0.00022706912
0.22184753	0.028395062	0.00057134137	0.00022707487
0.22204448	0.029460581	0.00059539528	0.00022705697
0.22224142	0.030115511	0.00060713821	0.00022705697
0.22243835	0.024329897	0.00048924505	0.00022705697
0.22263528	0.025290215	0.00051053695	0.00022705697
0.22283222	0.027138159	0.00054571673	0.00022704482
0.22302915	0.034554537	0.00070021232	0.00022705697
0.22322609	0.033044197	0.00066697906	0.00022704482
0.22342302	0.022605836	0.00045390154	0.00022704482
0.22361995	0.03445413	0.00069716218	0.00022705697
0.22381689	0.032204788	0.00064933579	0.0002270627
0.22401384	0.030897703	0.00062639202	0.00022704482
0.22421077	0.030452674	0.00061301957	0.00022704482
0.2244077	0.029399587	0.00059342728	0.00022704482
0.22460464	0.021639617	0.00043693688	0.00022704482
0.22480157	0.025462013	0.00051110651	0.00022704482
0.2249985	0.027253669	0.00055333372	0.00022704482
0.22519544	0.031557377	0.0006341773	0.00022704482
0.22539237	0.033679835	0.00068234507	0.00022704482
0.22558931	0.032204099	0.00065411016	0.00022704482
0.22578624	0.029832449	0.00059859722	0.00022703838
0.22598319	0.034985423	0.000709466	0.00022703265
0.22618012	0.03844564	0.00077735435	0.00022704482
0.22637706	0.034323987	0.00069757184	0.00022704482
0.22657399	0.029423954	0.00059428514	0.00022703265
0.22677092	0.030679934	0.00062035536	0.00022703265
0.22696786	0.03689884	0.00074666785	0.00022703265
0.22716479	0.028571429	0.00057716586	0.00022704482
0.22736172	0.035968214	0.00073094195	0.00022703265
0.22755866	0.029338842	0.00059170811	0.00022703265
0.22775559	0.030087756	0.00061066373	0.00022703265
0.22795253	0.029850746	0.00060322514	0.00022703838
0.22814947	0.028654486	0.00057956117	0.00022703265
0.22834641	0.030679934	0.0006202404	0.00022703265
0.22854334	0.029081844	0.00058803021	0.0002270205
0.22874027	0.030685162	0.00062432938	0.00022703265
0.22893721	0.028064383	0.00056505075	0.00022703265
0.22913414	0.032445922	0.00065620453	0.0002270205
0.22933108	0.029485051	0.00059649779	0.0002270205
0.22952801	0.029595666	0.0005990119	0.0002270205
0.22972494	0.025822574	0.00052200287	0.0002270205
0.22992188	0.032752901	0.00066172722	0.00022703838
0.23011883	0.030008454	0.0006120833	0.0002270205
0.23031576	0.033030555	0.00066624902	0.0002270205
0.23051269	0.034124013	0.00069117092	0.0002270205
0.23070963	0.028333334	0.00057344633	0.0002270205
0.23090656	0.041873962	0.00084763963	0.00022700834
0.23110349	0.030620806	0.00062236597	0.00022700834
0.23130043	0.030454734	0.00061707373	0.0002270205
0.23149736	0.031613976	0.00063987047	0.0002270205
0.2316943	0.027986633	0.00056718179	0.0002270205
0.23189123	0.024491491	0.0004942728	0.00022701408
0.23208818	0.025565801	0.00051862176	0.00022700834
0.23228511	0.028726062	0.00058123778	0.00022700834
0.23248205	0.028416215	0.00057571114	0.00022700834
0.23267898	0.034771681	0.00070682383	0.00022700834
0.23287591	0.026184538	0.00052913657	0.00022700834
0.23307285	0.024257632	0.00049159786	0.00022700834
0.23326978	0.027522936	0.00055736559	0.00022700834
0.23346671	0.029632721	0.00060098525	0.00022700834
0.23366365	0.027333895	0.00055524346	0.00022700834
0.23386058	0.025041737	0.00050669635	0.00022701408
0.23405753	0.026837325	0.00054057071	0.00022699618
0.23425446	0.026083298	0.0005296485	0.00022700834
0.2344514	0.024748322	0.00050206907	0.00022699618
0.23464833	0.030087756	0.0006100657	0.00022699618
0.23484527	0.032190636	0.0006531406	0.00022700834
0.2350422	0.025919732	0.00052536972	0.00022700834
0.23523913	0.025199495	0.0005116376	0.00022699618
0.23543607	0.026228143	0.00053018681	0.00022699618
0.235633	0.027591974	0.00055933365	0.00022699618
0.23582993	0.028906578	0.00058697659	0.00022700192
0.23602688	0.023578947	0.00047865621	0.00022698403
0.23622382	0.030846186	0.00062470982	0.00022699618
0.23642075	0.032554258	0.00065993523	0.00022699618
0.23661768	0.028080469	0.00057016627	0.00022698403
0.23681462	0.027356902	0.00055621297	0.00022698403
0.23701155	0.031341411	0.00063596264	0.00022699618
0.23720849	0.021720968	0.00043873923	0.00022698403
0.23740542	0.022670025	0.00045946593	0.00022699618
0.23760235	0.025995808	0.00052740506	0.00022698403
0.23779929	0.021419572	0.00043370848	0.00022698977
0.23799624	0.028380634	0.00057488319	0.00022698403
0.23819317	0.023539303	0.00047744933	0.00022698403
0.2383901	0.026028547	0.00052868202	0.00022698403
0.23858704	0.029325513	0.00059556065	0.00022698403
0.23878397	0.027661357	0.00056144502	0.00022698403
0.2389809	0.021812081	0.00044183739	0.00022697187
0.23917784	0.028583439	0.00058092916	0.00022697187
0.23937477	0.02822241	0.00057462556	0.00022698403
0.23957171	0.029313233	0.00059481605	0.00022697187
0.23976864	0.030859049	0.00062510069	0.00022697762
0.23996559	0.029894738	0.00060872955	0.00022697187
0.24016252	0.02538071	0.00051731366	0.00022697187
0.24035946	0.025990626	0.00053131283	0.00022697187
0.24055639	0.027472528	0.00056014815	0.00022697187
0.24075332	0.028109029	0.00057540031	0.00022697187
0.24095026	0.025311025	0.00051944394	0.00022697187
0.24114719	0.025531914	0.00052209164	0.00022697187
0.24134412	0.02869379	0.00058868364	0.00022697187
0.24154106	0.034943916	0.00072101247	0.00022697187
0.24173799	0.031937853	0.00065865827	0.00022696547
0.24193494	0.030815972	0.00063683046	0.00022697187
0.24213187	0.033562824	0.0006911903	0.00022695972
0.24232881	0.03148229	0.00065361377	0.00022697187
0.24252574	0.036292087	0.00075391505	0.00022695972
0.24272268	0.034061134	0.000706525	0.00022695972
0.24291961	0.030383091	0.00063225586	0.00022695972
0.24311654	0.034812883	0.00072147581	0.00022695972
0.24331348	0.028876055	0.00060318789	0.00022695972
0.24351041	0.02425044	0.00050365168	0.00022695972
0.24370734	0.032570422	0.00067719346	0.00022696547
0.24390429	0.031138791	0.00065097603	0.00022695972
0.24410123	0.02862254	0.0005997945	0.00022695972
0.24429816	0.029307282	0.00061215903	0.00022694757
0.24449509	0.023755139	0.00050237204	0.00022694757
0.24469203	0.025345622	0.00053888495	0.00022695972
0.24488896	0.023898782	0.00051075598	0.00022694757
0.2450859	0.024447579	0.00052469852	0.00022694757
0.24528283	0.023663038	0.00050910126	0.00022694757
0.24547976	0.025751073	0.00055684848	0.00022694757
0.2456767	0.026467757	0.00057468348	0.0002269533
0.24587364	0.027417028	0.00059596135	0.00022694757
0.24607058	0.025254978	0.00055090914	0.0002269354
0.24626751	0.027131783	0.00059141545	0.00022694757
0.24646445	0.022648942	0.0004969553	0.00022694757
0.24666138	0.022604423	0.00049549056	0.00022694757
0.24685831	0.020226937	0.00044304982	0.0002269354
0.24705525	0.033780426	0.00074655429	0.0002269354
0.24725218	0.028457314	0.00063000817	0.0002269354
0.24744911	0.027149322	0.00060239871	0.00022694757
0.24764605	0.024987506	0.00055289618	0.00022694115
0.247843	0.02165156	0.00048001937	0.0002269354
0.24803993	0.035276074	0.00079151458	0.0002269354
0.24823686	0.031778574	0.00071324938	0.0002269354
0.2484338	0.018839104	0.0004184756	0.00022692325
0.24863073	0.022119341	0.00049511215	0.0002269354
0.24882767	0.023148147	0.00051875319	0.00022692325
0.2490246	0.022762544	0.00051167654	0.00022692325
0.24922153	0.026123302	0.00059030089	0.00022692325
0.24941847	0.025428127	0.00057297968	0.00022692325
0.2496154	0.025830258	0.00058687746	0.000226929
0.24981235	0.02903907	0.00066066883	0.00022692965
0.25000927	0.02767624	0.00062638626	0.00022692325
0.2502062	0.022399999	0.00051035522	0.0002269354
0.25040314	0.028072033	0.00063824491	0.0002269111
0.25060007	0.027582478	0.00063455704	0.0002269226
0.25079703	0.030982906	0.00070943765	0.0002269111
0.25099397	0.025255239	0.0005785242	0.0002269111
0.2511909	0.024959305	0.00057380385	0.0002269111
0.25138783	0.030156165	0.00069280295	0.0002269111
0.25158477	0.033242505	0.00076858461	0.0002269111
0.2517817	0.031113537	0.00071958225	0.0002269111
0.25197864	0.024109589	0.00055629306	0.0002269111
0.25217557	0.021052632	0.00048840325	0.0002269111
0.2523725	0.028540066	0.00066134398	0.0002269111
0.25256944	0.022234574	0.00051710504	0.0002269111
0.25276637	0.026096612	0.00060739735	0.0002269111
0.2529633	0.026242323	0.0006130609	0.0002268868
0.25316024	0.020833334	0.00048666444	0.0002269111
0.25335717	0.020466173	0.00048052895	0.0002269111
0.25355411	0.026362039	0.0006298403	0.0002269111
0.25375104	0.024669074	0.00059713953	0.0002269111
0.25394797	0.032004829	0.0007778412	0.0002268868
0.25414491	0.022113021	0.00053969282	0.0002269111
0.25434184	0.02972802	0.00073646026	0.0002269111
0.25453877	0.029947916	0.00075493479	0.0002269226
0.25473574	0.024848891	0.00063445797	0.0002268868
0.25493267	0.014305177	0.00036361939	0.0002269111
0.25512961	0.024339361	0.00063069799	0.0002269111
0.25532654	0.022711143	0.00059451954	0.0002269111
0.25552347	0.028404953	0.00075389532	0.0002268868
0.25572041	0.032575756	0.00088597601	0.0002269111
0.25591734	0.021880064	0.00060884666	0.0002269111
0.25611427	0.027515048	0.00079366058	0.0002268868
0.25631121	0.019178081	0.00056314975	0.0002268868
0.25650814	0.025447691	0.00076482026	0.0002268868
0.25670508	0.020329138	0.00061461976	0.0002268868
0.25690201	0.029598309	0.00094423181	0.0002268868
0.25709894	0.024691358	0.00080687489	0.0002268868
0.25729588	0.017709563	0.00058541395	0.0002268868
0.25749281	0.013189448	0.00043174103	0.0002268868
0.25768974	0.035220128	0.0012192479	0.0002268868
0.25788668	0.033635188	0.0011778822	0.0002268868
0.25808361	0.022696929	0.00079317566	0.0002268868
0.25828055	0.023255814	0.00083196122	0.0002268868
0.25847748	0.015736766	0.00056792563	0.00022689829
0.25867444	0.020378457	0.00074146589	0.00022686248
0.25887138	0.016819572	0.00062756974	0.00022686248
0.25906831	0.029320987	0.0011120966	0.00022686248
0.25926524	0.023771791	0.00091497664	0.0002268868
0.25946218	0.031772576	0.0012619761	0.00022686248
0.25965911	0.042444821	0.0017035578	0.0002268868
0.25985605	0.032928944	0.0013236786	0.0002268868
0.26005298	0.024305556	0.00097674073	0.00022686248
0.26024991	0.024475524	0.00098701008	0.00022686248
0.26044685	0.030357143	0.0012410462	0.0002268868
0.26064378	0.021390375	0.00086542632	0.00022686248
0.26084071	0.023381295	0.00094741239	0.00022686248
0.26103765	0.027624309	0.0011463313	0.00022686248
0.26123458	0.022222223	0.00090945989	0.00022686248
0.26143152	0.02264151	0.00093533669	0.0002268868
0.26162845	0.024029575	0.0009935007	0.00022686248
0.26182538	0.021032505	0.00086971099	0.00022686248
0.26202232	0.02739726	0.0011625999	0.00022686248
0.26221925	0.037698414	0.0016360574	0.00022686248
0.26241618	0.024856597	0.0010385405	0.00022684968
0.26261315	0.017857144	0.00074017514	0.00022683818
0.26281008	0.012195121	0.00050240592	0.00022686248
0.26300701	0.02053388	0.00088363752	0.00022686248
0.26320395	0.018108651	0.00075587817	0.00022683818
0.26340088	0.016913319	0.00072821882	0.00022686248
0.26359782	0.014644352	0.00060581905	0.00022683818
0.26379475	0.02991453	0.0013339249	0.00022686248
0.26399168	0.012820513	0.00054157211	0.00022683818
0.26418862	0.023913043	0.0010642218	0.00022683818
0.26438555	0.015659954	0.00068651448	0.00022683818
0.26458248	0.020594966	0.00092991139	0.00022683818
0.26477942	0.017937221	0.00079538825	0.00022683818
0.26497635	0.023310022	0.0010569687	0.00022686248
0.26517329	0.025641026	0.0011817269	0.00022683818
0.26537022	0.017114915	0.0007844608	0.00022683818
0.26556715	0.028846154	0.0013557187	0.00022683818
0.26576409	0.024752475	0.0011697346	0.00022683818
0.26596102	0.027777778	0.0013326086	0.00022683818
0.26615795	0.012953368	0.00059046934	0.00022683818
0.26635489	0.028132992	0.0013582737	0.00022684968
0.26655185	0.018567638	0.00088652171	0.00022681388
0.26674879	0.019178081	0.00093063869	0.00022683818
0.26694572	0.021621622	0.0010528805	0.00022683818
0.26714265	0.024657534	0.001218492	0.00022681388
0.26733959	0.014124294	0.00067239488	0.00022681388
0.26753652	0.028571429	0.00145091	0.00022681388
0.26773345	0.027190333	0.0014111763	0.00022683818
0.26793039	0.029850746	0.0015495416	0.00022683818
0.26812732	0.056213018	0.0029804471	0.00022683818
0.26832426	0.021875	0.0011065847	0.00022683818
0.26852119	0.031746034	0.0016995968	0.00022683818
0.26871812	0.022508038	0.001155018	0.00022683818
0.26891506	0.01607717	0.00077480962	0.00022681388
0.26911199	0.013468013	0.00067793543	0.00022683818
0.26930892	0.023489933	0.0012619151	0.00022683818
0.26950586	0.024221454	0.0013213885	0.00022683818
0.26970279	0.010309278	0.00049429206	0.00022681388
0.26989973	0.018115941	0.00097710115	0.00022681388
0.27009666	0.014981274	0.00079549698	0.00022681388
0.27029359	0.011450382	0.0005787008	0.00022684968
0.27049056	0.0073260074	0.00031409998	0.00022681388
0.27068749	0.0077821012	0.00034392352	0.00022681388
0.27088442	0.0080321282	0.00036065321	0.00022681388
0.27108136	0	0	0.00022681388
0.27127829	0	0	0.00022681388
0.27147523	0	0	0.00022681388
0.27167216	0	0	0.00022681388
0.27186909	0	0	0.00022681388
0.27206603	0	0	0.00022681388
0.27226296	0	0	0.00022681388
