#   DataFileName=PAL30_80C_WAXS_08172017.tif
#   DataFileType=.tif
#   
#   DataFilePath=E:DATA:PAL30_08262017:
#   
#   Processed on=Wed, Jan 16, 2019,2:41:42 AM
#   Units=Arbitrary
#   SampleThickness=1
#   SampleTransmission=1
#   CorrectionFactor=1
#   SampleMeasurementTime=1
#   EmptyMeasurementTime=1
#   BackgroundMeasTime=1
#   SampleI0=1
#   EmptyI0=1
#   Nika_SampleToDetectorDistacne=1552.1
#   Nika_Wavelength=1.54
#   Nika_XrayEnergy=8.0509
#   Nika_PixelSizeX=0.075
#   Nika_PixelSizeY=0.075
#   Nika_HorizontalTilt=0
#   Nika_VerticalTilt=0
#   Nika_BeamCenterX=1540.3
#   Nika_BeamCenterY=830.17
#   Nika_BeamSizeX=0
#   Nika_BeamCenterY=830.17
#   CalibrationFormula=1*((Sa2D))
#   CurrentMaskFileName=PAL30_30C_WAXS_mask.hdf
#   QvectorMaxNumPnts=1
#   QvectorNumberPoints=1383
#   CircularAverage=1
#   PolarizationCorrection=None
#   UncertainityCalculationMethod=OldNikaMethod

0.0060065244	10.5	7.4161983	0.00022756745
0.00620346	6.04	1.2001666	0.00022756765
0.0064003952	4.9649124	0.65504819	0.00022756765
0.0065973303	5.375	0.59955812	0.00022756765
0.0067942655	7.265306	0.7282781	0.00022756765
0.0069912006	9.9345798	0.93996072	0.00022756745
0.0071881362	13	1.14509	0.00022756727
0.0073850714	13.954199	1.1897329	0.00022756727
0.0075820065	13.462069	1.0950196	0.00022756727
0.0077789417	12.85034	1.0402403	0.00022756745
0.0079758773	12.056962	0.94341111	0.00022756746
0.0081728119	10.552147	0.81266522	0.00022756707
0.0083697475	9.5056181	0.70151925	0.00022756671
0.0085666822	8.2849741	0.58744466	0.00022756783
0.0087636178	7.2307692	0.51023346	0.00022756783
0.0089605534	6.5450239	0.44432732	0.00022756746
0.0091574881	5.8427949	0.38154683	0.00022756707
0.0093544237	5.1440001	0.32173505	0.00022756671
0.0095513584	4.961977	0.30302221	0.00022756707
0.009748294	4.3860292	0.26311213	0.00022756707
0.0099452296	3.6714802	0.21816245	0.00022756595
0.010142164	3.5863309	0.21286108	0.00022756707
0.0103391	3.3771043	0.19411439	0.00022756671
0.010536035	3.159322	0.1821892	0.00022756707
0.01073297	2.6907895	0.15307398	0.00022756783
0.010929906	2.7717042	0.15556875	0.00022756746
0.01112684	2.3993611	0.13412946	0.00022756783
0.011323776	2.1957831	0.11940998	0.00022756746
0.011520711	2.0762196	0.11373404	0.00022756707
0.011717646	1.887574	0.10177332	0.00022756707
0.011914582	1.8538011	0.09946689	0.00022756746
0.012111517	1.7101449	0.091188721	0.00022756783
0.012308452	1.6895604	0.087902151	0.00022756671
0.012505387	1.9322034	0.10196952	0.00022756783
0.012702323	1.4021164	0.071528174	0.00022756783
0.012899258	1.3378016	0.068818271	0.00022756671
0.013096193	1.421466	0.072214887	0.00022756707
0.013293128	1.2608696	0.063335076	0.00022756671
0.013490063	1.1649485	0.058647972	0.00022756707
0.013686999	1.0808823	0.053092916	0.00022756707
0.013883934	1.1216545	0.054959781	0.00022756671
0.014080869	1.1411483	0.055423938	0.00022756707
0.014277805	0.90588236	0.043640856	0.00022756671
0.014474739	0.9243499	0.044741187	0.0002275663
0.014671675	0.87358916	0.041182447	0.00022756707
0.014868611	0.79772729	0.037824012	0.00022756671
0.015065545	0.80439562	0.03747467	0.0002275663
0.015262481	0.76180255	0.035055488	0.00022756671
0.015459416	0.70549452	0.032831207	0.00022756595
0.01565635	0.68656719	0.031513575	0.00022756707
0.015853286	0.6878981	0.031542111	0.00022756554
0.016050221	0.65154642	0.029447101	0.00022756707
0.016247157	0.58906883	0.026380302	0.00022756707
0.016444093	0.56599998	0.025181348	0.00022756483
0.016641026	0.61847389	0.027571028	0.00022756707
0.016837962	0.52705413	0.023519488	0.00022756707
0.017034898	0.4766537	0.02091659	0.00022756554
0.017231833	0.50860423	0.022120237	0.00022756554
0.017428769	0.44781783	0.019402344	0.00022756483
0.017625703	0.43551403	0.018726559	0.00022756554
0.017822638	0.47858474	0.02057682	0.00022756554
0.018019574	0.43198529	0.018427998	0.00022756554
0.018216509	0.43248177	0.018374508	0.00022756554
0.018413445	0.41860464	0.017636927	0.00022756483
0.018610379	0.42579505	0.017843647	0.00022756554
0.018807314	0.38045377	0.01582535	0.00022756554
0.01900425	0.42287695	0.017542459	0.00022756554
0.019201186	0.34090909	0.014186272	0.00022756554
0.019398121	0.34505862	0.014053653	0.00022756483
0.019595055	0.33389831	0.013686421	0.00022756554
0.019791991	0.32892561	0.013321633	0.00022756554
0.019988926	0.32066116	0.012983572	0.00022756554
0.020185862	0.34477124	0.01389003	0.00022756554
0.020382797	0.30732483	0.01220978	0.00022756483
0.020579731	0.31715211	0.012704757	0.00022756403
0.020776667	0.27899686	0.011004955	0.00022756403
0.020973602	0.30359939	0.011970652	0.00022756554
0.021170538	0.28281251	0.011139462	0.00022756403
0.021367474	0.2428356	0.0093977535	0.0002275633
0.021564407	0.24458204	0.0095851673	0.00022756403
0.021761343	0.27802691	0.010709193	0.00022756403
0.021958278	0.28959277	0.011211596	0.00022756403
0.022155214	0.27019089	0.010313802	0.00022756403
0.02235215	0.26017442	0.0098751793	0.0002275633
0.022549083	0.25110132	0.0095892018	0.00022756403
0.022746019	0.20567375	0.007710774	0.00022756403
0.022942955	0.21951219	0.0082812188	0.00022756403
0.02313989	0.22630835	0.0084828893	0.00022756403
0.023336826	0.19246861	0.0071531222	0.0002275633
0.02353376	0.23488045	0.0087678442	0.00022756403
0.023730695	0.22252375	0.0081699444	0.00022756403
0.023927631	0.21241379	0.0078596016	0.0002275625
0.024124566	0.21983914	0.0080227777	0.00022756403
0.024321502	0.19705094	0.0071864044	0.00022756179
0.024518436	0.19597316	0.0071522938	0.0002275625
0.024715371	0.23056653	0.008341263	0.0002275625
0.024912307	0.19022457	0.0068812668	0.0002275625
0.025109243	0.20716113	0.0073768487	0.0002275625
0.025306178	0.1992238	0.0071390127	0.00022756179
0.025503112	0.1890166	0.006729221	0.0002275625
0.025700048	0.16899619	0.0059993723	0.0002275625
0.025896983	0.19592875	0.0069590053	0.0002275625
0.026093919	0.15024631	0.0052492092	0.00022756097
0.026290854	0.19354838	0.0067910617	0.00022756179
0.026487788	0.16829269	0.0058540059	0.0002275625
0.026684724	0.18704157	0.0065158824	0.00022756097
0.026881659	0.181486	0.00630815	0.0002275625
0.027078595	0.16945107	0.0058300095	0.00022756097
0.027275531	0.18291216	0.0063208817	0.00022756179
0.027472464	0.14086147	0.0047834083	0.00022756097
0.0276694	0.17257683	0.0059094662	0.00022756097
0.027866336	0.14269142	0.0048385817	0.00022756097
0.028063271	0.15116279	0.0051328284	0.00022756097
0.028260207	0.13170163	0.0044735796	0.00022756026
0.028457141	0.17957351	0.0059922165	0.00022756097
0.028654076	0.15664019	0.0052581108	0.00022756097
0.028851012	0.15659955	0.0052181655	0.00022756097
0.029047947	0.12541993	0.0041778898	0.00022756097
0.029244883	0.15298088	0.0051094973	0.00022756026
0.029441817	0.12962963	0.0042587752	0.00022756097
0.029638752	0.15494506	0.0051144566	0.00022755946
0.029835688	0.15426105	0.0050475951	0.00022756097
0.030032624	0.13225806	0.0043178257	0.00022755946
0.030229559	0.11471862	0.0037568046	0.00022755875
0.030426493	0.16702127	0.0054282644	0.00022755946
0.030623429	0.12460064	0.0040491405	0.00022755946
0.030820364	0.12177502	0.0038956832	0.00022755946
0.0310173	0.1493165	0.0048225545	0.00022755946
0.031214235	0.14107884	0.0045272363	0.00022755946
0.031411171	0.13963039	0.0044554826	0.00022755875
0.031608105	0.13547052	0.0043387087	0.00022755571
0.031805038	0.15369059	0.0048708902	0.00022756017
0.032001976	0.12942366	0.004097613	0.00022755875
0.03219891	0.12763819	0.0040294421	0.00022756017
0.032395847	0.13286713	0.0041831788	0.00022755875
0.032592781	0.11717974	0.0036761286	0.00022755875
0.032789715	0.10665362	0.0033207785	0.00022756017
0.032986652	0.11034483	0.0034486228	0.00022755571
0.033183586	0.12560856	0.0039033713	0.00022755713
0.033380523	0.1088632	0.0033645283	0.00022755875
0.033577457	0.13680154	0.0042308564	0.00022755571
0.033774391	0.12583412	0.0038695894	0.00022755713
0.033971328	0.13645038	0.004199517	0.00022755571
0.034168262	0.12109745	0.0037089614	0.00022756017
0.0343652	0.1065033	0.0032551719	0.00022755571
0.034562133	0.12070566	0.0036638479	0.00022755571
0.034759067	0.12059369	0.0036594043	0.00022756017
0.034956004	0.11666667	0.003535779	0.00022755571
0.035152938	0.11689498	0.0035186028	0.00022755713
0.035349876	0.11222628	0.0033763007	0.00022755571
0.035546809	0.10980036	0.0032938102	0.00022755571
0.035743743	0.12137681	0.0036383492	0.00022755713
0.035940681	0.11748879	0.0035060116	0.00022755571
0.036137614	0.10834814	0.0032163973	0.00022755713
0.036334552	0.10923623	0.0032417995	0.00022755266
0.036531486	0.11816578	0.0034956727	0.00022755266
0.036728419	0.11199295	0.0033130147	0.00022755713
0.036925357	0.11043479	0.0032432831	0.00022755571
0.037122291	0.13292789	0.0039056542	0.00022755713
0.037319228	0.13084923	0.003839033	0.00022755571
0.037516162	0.12468193	0.003618309	0.00022755266
0.037713096	0.1293916	0.0037743778	0.00022755713
0.037910033	0.11073254	0.0032189647	0.00022755266
0.038106967	0.091603056	0.0026556263	0.00022755409
0.038303904	0.12405063	0.0035908555	0.00022755266
0.038500838	0.10482529	0.0030116104	0.00022755266
0.038697772	0.11735537	0.0033618754	0.00022755409
0.038894709	0.102649	0.0029411349	0.00022755266
0.039091643	0.1108354	0.0031752258	0.00022755409
0.03928858	0.1090164	0.0031085226	0.00022755266
0.039485514	0.1413485	0.0040171114	0.00022755266
0.039682448	0.11941511	0.0033914195	0.00022755409
0.039879385	0.097991966	0.0027661477	0.00022755266
0.040076319	0.1112	0.0031333328	0.00022755409
0.040273257	0.1211878	0.0034218323	0.00022754962
0.04047019	0.11535402	0.0032425711	0.00022754962
0.040667124	0.12152502	0.0034142032	0.00022755409
0.040864062	0.10007819	0.0027878152	0.00022755266
0.041060995	0.10108865	0.0028088088	0.00022755409
0.041257933	0.1099844	0.0030607998	0.00022754962
0.041454867	0.11206226	0.0031151127	0.00022755266
0.0416518	0.094941631	0.0026379663	0.00022755409
0.041848738	0.086259544	0.0023730351	0.00022754962
0.042045671	0.10266159	0.0028201984	0.00022754801
0.042242609	0.11406844	0.0031358625	0.00022754657
0.042439543	0.093394078	0.0025631499	0.00022754353
0.042636476	0.10217881	0.0027899458	0.00022754801
0.042833414	0.091867469	0.0025108533	0.00022754657
0.043030348	0.097834207	0.0026631434	0.00022754801
0.043227285	0.096011817	0.0025990678	0.00022754353
0.043424219	0.097273394	0.0026306445	0.00022754353
0.043621153	0.087499999	0.0023630506	0.00022754801
0.04381809	0.10630499	0.0028676912	0.00022754353
0.044015024	0.095830284	0.0025820248	0.00022754495
0.044211961	0.094927534	0.0025457663	0.00022754353
0.044408895	0.10719424	0.0028662803	0.00022754353
0.044605829	0.10632184	0.0028397951	0.00022754495
0.044802766	0.088952653	0.002373229	0.00022754353
0.0449997	0.092077091	0.0024508615	0.00022754495
0.045196638	0.087632507	0.0023204293	0.00022754353
0.045393571	0.094326243	0.0025031606	0.00022754353
0.045590505	0.086895585	0.002291515	0.00022754495
0.045787442	0.08274895	0.0021826068	0.00022754048
0.045984376	0.10833333	0.0028452447	0.00022754191
0.046181314	0.0888272	0.0023303493	0.00022754353
0.046378247	0.093232043	0.0024404856	0.00022754048
0.046575181	0.078729279	0.0020588166	0.00022754191
0.046772119	0.098697737	0.002574442	0.00022754353
0.046969052	0.084411167	0.0021927729	0.00022754495
0.04716599	0.090661213	0.0023578582	0.00022754048
0.047362924	0.10444744	0.0027015451	0.00022754048
0.047559857	0.099865951	0.0025766697	0.00022754495
0.047756795	0.096709199	0.0024971354	0.00022754048
0.047953729	0.092555329	0.0023873013	0.00022754495
0.048150666	0.10086264	0.0025886991	0.00022754048
0.0483476	0.091572657	0.0023499967	0.00022754048
0.048544534	0.093647674	0.0023871232	0.00022754191
0.048741471	0.088332236	0.0022581501	0.00022753744
0.048938405	0.093159609	0.0023675472	0.00022754191
0.049135342	0.081258193	0.0020699545	0.00022754048
0.049332276	0.07453014	0.0018878269	0.00022753744
0.04952921	0.089262612	0.0022600607	0.00022753887
0.049726147	0.077369437	0.0019549236	0.00022753744
0.049923081	0.082330592	0.0020629752	0.00022754191
0.050120018	0.092710994	0.0023338117	0.00022753744
0.050316952	0.088291749	0.0022236349	0.00022753744
0.050513886	0.0984127	0.0024700526	0.00022753887
0.050710823	0.078630313	0.0019713724	0.00022753744
0.050907757	0.06828057	0.0016916901	0.00022753887
0.051104695	0.088069953	0.0021919259	0.00022753744
0.051301628	0.087390758	0.0021735867	0.00022753744
0.051498562	0.066167288	0.0016434791	0.00022753887
0.0516955	0.087198518	0.0021586993	0.00022753744
0.051892433	0.088739291	0.0021858499	0.00022753887
0.052089371	0.091358028	0.0022605364	0.0002275344
0.052286305	0.091681845	0.0022493114	0.00022753744
0.052483238	0.092401214	0.0022685274	0.00022753583
0.052680176	0.088145897	0.002164165	0.0002275344
0.052877109	0.080851063	0.0019840428	0.00022753887
0.053074047	0.093429774	0.0022842365	0.0002275344
0.053270981	0.081791043	0.0019887653	0.00022753744
0.053467914	0.10143198	0.0024684099	0.00022753887
0.053664852	0.088522591	0.0021774282	0.0002275344
0.053861786	0.091640867	0.0022704168	0.00022753583
0.054058723	0.081569113	0.0020250448	0.0002275344
0.054255657	0.072974645	0.0018049834	0.0002275344
0.054452591	0.078799248	0.0019598822	0.00022753583
0.054649528	0.096069872	0.00238919	0.0002275344
0.054846462	0.10282132	0.0025640426	0.00022753583
0.055043399	0.083805926	0.0020928634	0.00022753136
0.055240333	0.078963995	0.0019744053	0.0002275344
0.055437267	0.07120353	0.0017763383	0.00022753583
0.055634204	0.088235296	0.0021968752	0.00022753136
0.055831138	0.075997464	0.0019027439	0.00022753279
0.056028076	0.07426054	0.0018518346	0.00022753136
0.056225009	0.083438687	0.0020875968	0.00022753136
0.056421943	0.088704534	0.0022294009	0.00022753279
0.05661888	0.069138907	0.0017235513	0.00022753136
0.056815814	0.087366439	0.002180276	0.00022753279
0.057012752	0.089873418	0.002249806	0.00022753136
0.057209685	0.086489901	0.0021623883	0.00022752832
0.057406619	0.07449495	0.0018612881	0.00022753279
0.057603557	0.06506633	0.0016255996	0.00022753136
0.05780049	0.082911395	0.0020750014	0.00022753279
0.057997428	0.065954775	0.001642164	0.00022752832
0.058194362	0.080808081	0.0020193346	0.00022752832
0.058391295	0.074542008	0.0018619688	0.00022752974
0.058588233	0.065789476	0.0016362939	0.00022752832
0.058785167	0.06329114	0.0015826994	0.00022752974
0.058982104	0.083595224	0.0020850932	0.00022752832
0.059179038	0.067839198	0.0016902388	0.00022752832
0.059375972	0.070484579	0.0017577271	0.00022752974
0.059572909	0.069548875	0.0017304564	0.00022752528
0.059769843	0.069943286	0.0017453441	0.00022752974
0.05996678	0.075588599	0.0018706694	0.00022752528
0.060163714	0.083805926	0.0020938201	0.00022752528
0.060360648	0.079177059	0.0019668157	0.00022752974
0.060557585	0.070131496	0.0017449555	0.00022752528
0.060754519	0.070317365	0.0017436885	0.0002275267
0.060951456	0.066791512	0.0016588087	0.00022752528
0.06114839	0.06036092	0.0014961631	0.00022752528
0.061345324	0.061643835	0.0015283759	0.0002275267
0.061542261	0.070186332	0.0017399188	0.00022752528
0.061739195	0.071517415	0.0017735515	0.0002275267
0.061936133	0.05951643	0.0014721941	0.00022752528
0.062133066	0.06992574	0.0017288647	0.00022752528
0.06233	0.078153849	0.0019295306	0.00022752528
0.062526934	0.074783683	0.0018494846	0.0002275251
0.062723875	0.069478907	0.0017205128	0.00022751919
0.062920809	0.067817509	0.0016736664	0.00022752528
0.063117743	0.066336021	0.0016418656	0.00022751919
0.063314676	0.06670747	0.0016393875	0.00022751919
0.06351161	0.061698228	0.001515414	0.00022752814
0.063708551	0.063764565	0.0015695621	0.00022751919
0.063905485	0.070457354	0.001742687	0.00022751919
0.064102419	0.069512196	0.0017072002	0.00022751919
0.064299352	0.073484384	0.0018083676	0.00022752528
0.064496286	0.089688838	0.0022052138	0.00022752205
0.064693227	0.089914948	0.0022066685	0.00022751919
0.064890161	0.064242423	0.0015718485	0.00022751919
0.065087095	0.081857055	0.0020121429	0.00022752528
0.065284029	0.07880269	0.0019382351	0.00022752528
0.065480962	0.0811138	0.0019851301	0.00022752205
0.065677904	0.084235862	0.002055869	0.00022752528
0.065874837	0.085299455	0.0020885505	0.00022751919
0.066071771	0.086694762	0.0021173465	0.00022751919
0.066268705	0.086457074	0.0021168529	0.00022751919
0.066465639	0.088500902	0.0021619422	0.00022752205
0.06666258	0.073652692	0.0017928757	0.00022751919
0.066859514	0.082374319	0.0020184645	0.00022751919
0.067056447	0.064209275	0.0015563827	0.00022751919
0.067253381	0.069934249	0.0017007133	0.00022751919
0.067450315	0.080095634	0.0019491793	0.00022751596
0.067647256	0.089221559	0.0021742336	0.00022751919
0.06784419	0.083932854	0.0020460491	0.00022751919
0.068041123	0.07692308	0.0018613955	0.00022751311
0.068238057	0.068761118	0.0016653768	0.00022751311
0.068434991	0.061200239	0.0014835692	0.00022752205
0.068631932	0.064420804	0.0015572626	0.00022751311
0.068828866	0.071770333	0.0017466801	0.00022751311
0.0690258	0.070718877	0.0017013204	0.00022751311
0.069222733	0.077922076	0.0018843114	0.00022751311
0.069419667	0.084515363	0.0020460293	0.00022751596
0.069616608	0.077373974	0.0018646773	0.00022751311
0.069813542	0.069876686	0.001685189	0.00022751311
0.070010476	0.071260303	0.0017201871	0.00022751311
0.07020741	0.085646778	0.002072566	0.00022751311
0.070404343	0.068168692	0.001629847	0.00022752205
0.070601285	0.074722707	0.0017974218	0.00022751311
0.070798218	0.072632194	0.0017421588	0.00022751311
0.070995152	0.069794722	0.0016809036	0.00022751311
0.071192086	0.058377117	0.0014022494	0.00022751311
0.071389019	0.075373992	0.0017991621	0.00022751596
0.071585961	0.07598608	0.001821984	0.00022750701
0.071782894	0.066473991	0.0015904726	0.00022751311
0.071979828	0.058618687	0.001403362	0.00022751311
0.072176762	0.061671469	0.0014717379	0.00022751311
0.072373696	0.070487104	0.0016787429	0.00022751596
0.072570637	0.071304351	0.001708485	0.00022751311
0.072767571	0.072768621	0.0017266193	0.00022750701
0.072964504	0.072337963	0.0017324771	0.00022750701
0.073161438	0.074389555	0.0017646463	0.00022751311
0.073358372	0.063501142	0.0015105524	0.00022750988
0.073555313	0.074308753	0.0017753303	0.00022750701
0.073752247	0.074053138	0.0017527903	0.00022751311
0.073949181	0.069063924	0.0016411456	0.00022750701
0.074146114	0.069609508	0.0016481435	0.00022751311
0.074343048	0.074158587	0.001762889	0.00022750988
0.074539989	0.065303802	0.0015482981	0.00022750701
0.074736923	0.069871433	0.0016441863	0.00022750701
0.074933857	0.066021629	0.0015668318	0.00022750701
0.07513079	0.057995494	0.001369209	0.00022750701
0.075327724	0.065315314	0.0015414035	0.0002275038
0.075524665	0.067042254	0.0015836816	0.00022750701
0.075721599	0.069599107	0.0016341589	0.00022750093
0.075918533	0.067004502	0.0015818924	0.00022750701
0.076115467	0.065472856	0.0015410198	0.00022750701
0.0763124	0.061976548	0.00145647	0.00022750988
0.076509342	0.072858728	0.0017099438	0.00022750701
0.076706275	0.064963907	0.0015233076	0.00022750701
0.076903209	0.053251121	0.0012527686	0.00022750701
0.077100143	0.057300277	0.0013374994	0.00022750093
0.077297077	0.069290467	0.0016237185	0.0002275038
0.077494018	0.058954395	0.001383157	0.00022750093
0.077690952	0.057174273	0.0013330892	0.00022750093
0.077887885	0.061838441	0.0014517225	0.00022750093
0.078084819	0.053921569	0.0012514871	0.00022750093
0.078281753	0.061089709	0.0014253148	0.0002275038
0.078478694	0.069345072	0.0016190421	0.00022750093
0.078675628	0.069361001	0.001613084	0.00022750093
0.078872561	0.065049611	0.0015191451	0.00022750093
0.079069495	0.078474112	0.001824013	0.00022750093
0.079266429	0.06710311	0.0015597095	0.0002275038
0.07946337	0.059978191	0.0013937193	0.00022750093
0.079660304	0.056787454	0.0013132447	0.00022750093
0.079857238	0.055707265	0.0012940645	0.00022750093
0.080054171	0.071930774	0.0016651539	0.00022750093
0.080251105	0.064850137	0.0015069547	0.0002275038
0.080448046	0.062533692	0.0014451686	0.00022749485
0.08064498	0.063704498	0.001467192	0.00022750093
0.080841914	0.069376692	0.0016078876	0.00022750093
0.081038848	0.059012875	0.0013605432	0.00022749485
0.081235781	0.050865799	0.0011756363	0.00022749772
0.081432723	0.067235857	0.0015455293	0.00022749485
0.081629656	0.054400001	0.0012496241	0.00022749485
0.08182659	0.056775577	0.0013070613	0.00022749485
0.082023524	0.062799364	0.0014421404	0.00022749485
0.082220457	0.064136826	0.0014748926	0.00022749772
0.082417399	0.057599999	0.0013231343	0.00022749485
0.082614332	0.063863754	0.0014666134	0.00022749485
0.082811266	0.065852366	0.0015107403	0.00022749485
0.0830082	0.059999999	0.001369101	0.00022749485
0.083205134	0.056553911	0.0012937431	0.00022749163
0.083402075	0.059165347	0.0013527101	0.00022749485
0.083599009	0.057477381	0.0013184532	0.00022749485
0.083795942	0.066107027	0.0015072438	0.00022748877
0.083992876	0.06757465	0.0015397003	0.00022749485
0.08418981	0.059162304	0.0013476422	0.00022749772
0.084386751	0.058084771	0.0013218704	0.00022748877
0.084583685	0.047569264	0.0010805681	0.00022749485
0.084780619	0.055700157	0.0012643297	0.00022749485
0.084977552	0.057933193	0.0013170225	0.00022748877
0.085174486	0.061530508	0.0013922225	0.00022749163
0.085371427	0.060842432	0.0013806437	0.00022748877
0.085568361	0.066392176	0.0014993655	0.00022748877
0.085765295	0.057098765	0.0012887719	0.00022748877
0.085962228	0.053701773	0.0012191648	0.00022748877
0.086159162	0.074150361	0.0016759872	0.00022748555
0.086356103	0.058613658	0.0013166358	0.00022748877
0.086553037	0.065708421	0.0014820423	0.00022748877
0.086749971	0.061960384	0.0013900164	0.00022748877
0.086946905	0.059156377	0.0013354778	0.00022748268
0.087143838	0.070957929	0.0015905381	0.00022749163
0.08734078	0.0627231	0.0014094942	0.00022748877
0.087537713	0.071428575	0.0016013148	0.00022748268
0.087734647	0.066767827	0.0014950145	0.00022748877
0.087931581	0.058943089	0.0013226813	0.00022748877
0.088128515	0.051230539	0.0011417822	0.00022748555
0.088325456	0.053373616	0.0011915569	0.00022748268
0.08852239	0.055189874	0.0012358421	0.00022748268
0.088719323	0.054917622	0.0012207708	0.00022748268
0.088916257	0.061623245	0.0013732191	0.00022748268
0.089113191	0.052447554	0.0011658042	0.00022748555
0.089310132	0.055944055	0.0012441371	0.00022748268
0.089507066	0.052290838	0.0011604755	0.00022748268
0.089703999	0.064980157	0.0014411996	0.00022748268
0.089900933	0.064999998	0.0014467365	0.00022748268
0.090097867	0.073782586	0.0016302993	0.00022747947
0.090294808	0.066799603	0.0014849924	0.00022748268
0.090491742	0.057227429	0.0012650604	0.00022748268
0.090688676	0.054869007	0.0012139104	0.00022748268
0.090885609	0.066140175	0.0014632187	0.0002274766
0.091082543	0.075824715	0.0016760912	0.00022748268
0.091279477	0.061977372	0.001368477	0.00022748555
0.091476418	0.058042303	0.0012812088	0.0002274766
0.091673352	0.057617188	0.0012675241	0.00022748268
0.091870286	0.05940108	0.0013101893	0.0002274766
0.092067219	0.053868756	0.0011852657	0.0002274766
0.092264153	0.050632913	0.0011109485	0.00022747947
0.092461094	0.059512194	0.0013084386	0.0002274766
0.092658028	0.046454769	0.0010211805	0.0002274766
0.092854962	0.057087567	0.0012497222	0.0002274766
0.093051895	0.05944901	0.0013010025	0.0002274766
0.093248829	0.059737738	0.0013105809	0.00022747337
0.09344577	0.060415659	0.0013220183	0.0002274766
0.093642704	0.052478135	0.0011505084	0.00022747052
0.093839638	0.052555449	0.0011481125	0.0002274766
0.094036572	0.072150074	0.0015769067	0.0002274766
0.094233505	0.057803467	0.0012622359	0.00022747947
0.094430447	0.063218392	0.0013780184	0.00022747052
0.09462738	0.063285023	0.0013851651	0.00022747052
0.094824314	0.063605927	0.0013850447	0.00022747052
0.095021248	0.061273336	0.001334367	0.00022747052
0.095218182	0.049976204	0.0010844696	0.00022747337
0.095415123	0.060678452	0.0013201691	0.00022747052
0.095612057	0.055264413	0.0012003401	0.00022747052
0.09580899	0.065145031	0.0014146452	0.00022747052
0.096005924	0.055980861	0.0012186702	0.00022747052
0.096202858	0.052631579	0.001140691	0.00022747337
0.096399799	0.05957447	0.001289656	0.00022747052
0.096596733	0.056444027	0.0012185617	0.00022746444
0.096793666	0.052457467	0.0011344762	0.00022747052
0.0969906	0.073724009	0.0015968706	0.00022746444
0.097187534	0.054665409	0.0011808746	0.00022747337
0.097384475	0.061407652	0.0013290114	0.00022746444
0.097581409	0.058270678	0.0012577913	0.00022747052
0.097778343	0.053978596	0.0011586866	0.00022746444
0.097975276	0.059294119	0.0012807247	0.00022746444
0.09817221	0.049440298	0.0010619918	0.00022746729
0.098369151	0.05610561	0.0012127138	0.00022746444
0.098566085	0.056507643	0.0012105977	0.00022746444
0.098763019	0.050585479	0.0010894836	0.00022746444
0.098959953	0.058279373	0.0012482216	0.00022746444
0.099156886	0.060969979	0.0013049227	0.00022746121
0.099353828	0.057889823	0.0012449061	0.00022746444
0.099550761	0.05436803	0.0011662918	0.00022745834
0.099747695	0.06131858	0.0013111468	0.00022745834
0.099944629	0.056429233	0.0012076686	0.00022745834
0.10014156	0.048735633	0.0010395519	0.00022746121
0.1003385	0.052145824	0.0011145057	0.00022745834
0.10053544	0.057798166	0.0012320864	0.00022746444
0.10073237	0.049721189	0.0010661971	0.00022745834
0.1009293	0.060494959	0.001289252	0.00022746444
0.10112624	0.057272729	0.0012151663	0.00022746121
0.10132318	0.071231619	0.001521538	0.00022746444
0.10152011	0.049522944	0.001050621	0.00022745834
0.10171705	0.04663923	0.00099205051	0.00022745834
0.10191398	0.05241568	0.0011133906	0.00022745834
0.10211091	0.056646872	0.0012051011	0.00022746121
0.10230786	0.053660754	0.0011388855	0.00022745834
0.10250479	0.064195298	0.0013592683	0.00022745226
0.10270172	0.069369368	0.0014667661	0.00022745226
0.10289866	0.074715264	0.0015888721	0.00022745226
0.10309559	0.084386282	0.0017866243	0.00022745512
0.10329253	0.1087942	0.0023107871	0.00022745226
0.10348947	0.12107623	0.0025584842	0.00022745834
0.1036864	0.11351351	0.0024040341	0.00022745226
0.10388333	0.098698966	0.0020852075	0.00022745226
0.10408027	0.12415654	0.0026279013	0.00022746121
0.10427721	0.097757846	0.00206493	0.00022745226
0.10447414	0.12023329	0.0025408322	0.00022745226
0.10467108	0.094474152	0.0019891954	0.00022745226
0.10486801	0.10236924	0.0021584914	0.00022745226
0.10506494	0.11308204	0.0023761597	0.00022745512
0.10526188	0.095768377	0.0020160002	0.00022745226
0.10545882	0.092658907	0.0019552291	0.00022744617
0.10565575	0.08772707	0.0018412314	0.00022745226
0.10585269	0.083037302	0.0017445514	0.00022745226
0.10604962	0.091872789	0.0019257789	0.00022745512
0.10624656	0.083185844	0.0017447093	0.00022744617
0.10644349	0.074580759	0.0015618919	0.00022744617
0.10664043	0.08234258	0.001722899	0.00022745226
0.10683736	0.075187966	0.0015763832	0.00022744617
0.1070343	0.072623238	0.0015186943	0.00022744904
0.10723124	0.080454744	0.00167735	0.00022744617
0.10742817	0.070484579	0.0014743255	0.00022744617
0.1076251	0.063774407	0.0013235511	0.00022744617
0.10782204	0.06945055	0.0014510221	0.00022744617
0.10801897	0.064276345	0.0013388975	0.00022744904
0.10821591	0.061269145	0.0012768393	0.00022744617
0.10841285	0.068875328	0.0014330298	0.00022744617
0.10860978	0.079186499	0.0016421296	0.00022744009
0.10880671	0.080333628	0.0016781482	0.00022744009
0.10900365	0.078981444	0.001636	0.00022744904
0.10920059	0.076091655	0.001577227	0.00022744009
0.10939752	0.080260307	0.0016670744	0.00022744009
0.10959446	0.079913609	0.0016559907	0.00022744009
0.10979139	0.077758469	0.0016148144	0.00022744009
0.10998832	0.071581654	0.0014773801	0.00022744296
0.11018527	0.082363084	0.0017053303	0.00022744009
0.1103822	0.072382592	0.0014974814	0.00022744009
0.11057913	0.078540772	0.0016222278	0.00022743401
0.11077607	0.078743547	0.0016287597	0.00022744009
0.110973	0.08688245	0.0017884738	0.00022743687
0.11116994	0.098332621	0.0020282955	0.00022743401
0.11136688	0.094646677	0.0019539716	0.00022743401
0.11156381	0.096129306	0.0019780593	0.00022743401
0.11176074	0.0982906	0.0020269952	0.00022743401
0.11195768	0.10729431	0.0022052366	0.00022744296
0.11215462	0.12697734	0.0026208558	0.00022743401
0.11235155	0.11417657	0.0023476544	0.00022743401
0.11254849	0.12452511	0.0025539864	0.00022743401
0.11274542	0.16723116	0.0034363167	0.00022743401
0.11294235	0.19643615	0.0040412527	0.00022743687
0.11313929	0.28565383	0.0058712186	0.00022743401
0.11333623	0.4859421	0.0099491794	0.00022743401
0.11353316	0.80126852	0.016469197	0.00022742792
0.1137301	1.5571429	0.031908363	0.00022743401
0.11392703	2.653975	0.054272801	0.00022743079
0.11412397	4.5951281	0.094150275	0.00022742792
0.1143209	7.2908783	0.14945032	0.00022742792
0.11451784	10.933864	0.22366092	0.00022742792
0.11471477	14.929081	0.30577686	0.00022742792
0.11491171	18.806959	0.38272804	0.00022743079
0.11510865	22.600584	0.46166417	0.00022742792
0.11530558	25.395088	0.51810968	0.00022742792
0.11550251	26.599331	0.54393697	0.00022742792
0.11569945	26.869043	0.54695034	0.00022742792
0.11589638	26.207281	0.53304452	0.00022743079
0.11609332	24.274494	0.4935315	0.00022742792
0.11629026	22.391556	0.4555321	0.00022742792
0.11648719	20.147169	0.40961367	0.00022742184
0.11668412	18.197357	0.36973312	0.00022742184
0.11688106	16.155758	0.32878441	0.00022742471
0.117078	14.145148	0.2867834	0.00022742184
0.11727493	12.139583	0.24555323	0.00022742184
0.11747187	10.112976	0.20454592	0.00022742184
0.1176688	8.3608036	0.16923605	0.00022742184
0.11786573	6.8263202	0.1385981	0.00022742471
0.11806267	4.9816251	0.10062192	0.00022742184
0.11825961	3.4158132	0.069106147	0.00022742184
0.11845654	2.2992702	0.046279926	0.00022742184
0.11865348	1.5254375	0.030761072	0.00022742184
0.11885041	1.0299058	0.020836998	0.00022741863
0.11904735	0.71295547	0.014339454	0.00022741576
0.11924428	0.54597235	0.011007167	0.00022741576
0.11944122	0.45105177	0.0090673743	0.00022741576
0.11963815	0.37977254	0.0076494184	0.00022741576
0.11983509	0.34351146	0.0068807406	0.00022741863
0.12003203	0.30856219	0.0061965715	0.00022741576
0.12022896	0.28484356	0.0057372297	0.00022741576
0.12042589	0.26477733	0.0053229411	0.00022741576
0.12062283	0.23486973	0.0046975329	0.00022741576
0.12081976	0.23626153	0.0047270558	0.00022741863
0.1210167	0.2016	0.0040274691	0.00022741576
0.12121364	0.21486267	0.0043132678	0.00022740968
0.12141057	0.17884232	0.0035691059	0.00022740968
0.1216075	0.17729643	0.0035464673	0.00022741576
0.12180444	0.16799363	0.0033474751	0.00022741254
0.12200138	0.14507772	0.0028919992	0.00022740968
0.12219831	0.14217253	0.0028367862	0.00022741576
0.12239525	0.14574258	0.0028962651	0.00022741576
0.12259218	0.13783459	0.0027508514	0.00022740968
0.12278911	0.1241544	0.0024723101	0.00022741254
0.12298606	0.12668785	0.0025202057	0.00022740968
0.12318299	0.13064133	0.0025950805	0.00022740968
0.12337992	0.10788544	0.0021323794	0.00022740968
0.12357686	0.1102737	0.002191725	0.00022740968
0.12377379	0.12050573	0.0023911295	0.00022740646
0.12397073	0.10817213	0.0021446825	0.00022740968
0.12416767	0.11704635	0.0023154314	0.00022740359
0.1243646	0.11990596	0.0023690772	0.00022740359
0.12456153	0.10252366	0.0020316851	0.00022740359
0.12475847	0.10501567	0.0020744596	0.00022740646
0.12495541	0.10232192	0.0020257507	0.00022739463
0.12515233	0.10125098	0.0019977046	0.00022740323
0.12534928	0.10354223	0.0020382991	0.00022739751
0.12554622	0.10402816	0.0020529577	0.00022739751
0.12574315	0.089389816	0.0017581915	0.00022739751
0.12594008	0.10433763	0.0020585707	0.00022739751
0.12613702	0.097162843	0.001911353	0.00022740968
0.12633395	0.093567252	0.0018435061	0.00022740968
0.12653089	0.08830364	0.0017335862	0.00022739751
0.12672782	0.086939722	0.0017048272	0.00022739751
0.12692475	0.082943924	0.0016325518	0.00022739751
0.12712169	0.091117918	0.0017788201	0.00022740323
0.12731864	0.086314149	0.001697749	0.00022739751
0.12751557	0.079646021	0.001558151	0.00022739751
0.1277125	0.074615382	0.0014594425	0.00022739751
0.12790944	0.074159905	0.001453526	0.00022739751
0.12810637	0.065743946	0.0012850384	0.00022739751
0.1283033	0.079340741	0.0015493091	0.00022739751
0.12850024	0.08815638	0.0017218243	0.00022739751
0.12869717	0.082217976	0.0016038362	0.00022738535
0.12889411	0.081060313	0.0015846624	0.00022739751
0.12909104	0.074553065	0.0014499739	0.00022740323
0.12928799	0.076303683	0.0014898736	0.00022739751
0.12948492	0.073512696	0.0014269011	0.00022739751
0.12968186	0.078333974	0.001527189	0.00022738535
0.12987879	0.083015993	0.0016159022	0.00022738535
0.13007572	0.071888007	0.0013942817	0.00022738535
0.13027266	0.079908676	0.0015548157	0.00022738535
0.13046959	0.079365082	0.0015384487	0.00022738535
0.13066652	0.086082667	0.001672564	0.00022738535
0.13086346	0.082419656	0.0015984522	0.00022739751
0.13106039	0.072018005	0.0013910414	0.00022740323
0.13125734	0.078707226	0.0015303923	0.00022738535
0.13145427	0.080015026	0.0015471108	0.00022738535
0.13165121	0.085122414	0.0016480415	0.00022738535
0.13184814	0.077931806	0.0015044353	0.00022738535
0.13204508	0.079144783	0.001528749	0.00022738535
0.13224201	0.083081573	0.0016103898	0.00022738535
0.13243894	0.074364722	0.0014334037	0.00022738535
0.13263588	0.065201193	0.001254299	0.00022738535
0.13283281	0.073672399	0.0014208321	0.00022738535
0.13302974	0.061002996	0.0011761534	0.00022739106
0.13322669	0.077238806	0.0014879339	0.00022738535
0.13342363	0.074870273	0.0014372215	0.00022738535
0.13362056	0.072781287	0.0013984041	0.00022738535
0.13381749	0.067089081	0.0012912102	0.00022737318
0.13401443	0.068080358	0.0013092679	0.00022737318
0.13421136	0.061966605	0.0011895221	0.00022738535
0.1344083	0.068165071	0.0013045736	0.00022737318
0.13460523	0.061714709	0.0011825744	0.00022737318
0.13480216	0.073977694	0.0014221906	0.00022737318
0.1349991	0.067777775	0.0013000009	0.0002273789
0.13519605	0.071141921	0.0013551771	0.00022737318
0.13539298	0.070714548	0.0013565117	0.00022737318
0.13558991	0.061538462	0.0011739852	0.00022737318
0.13578685	0.065417126	0.0012500333	0.00022737318
0.13598378	0.055291101	0.001054286	0.00022737318
0.13618071	0.060382918	0.001154798	0.00022737318
0.13637765	0.058586597	0.0011174264	0.00022737318
0.13657458	0.057362076	0.0010926577	0.00022737318
0.13677152	0.063046649	0.0011998171	0.00022737318
0.13696845	0.061046511	0.0011600169	0.00022737318
0.13716538	0.05512961	0.0010498089	0.0002273789
0.13736233	0.071716063	0.0013681708	0.00022737318
0.13755926	0.065390177	0.0012392099	0.00022737318
0.1377562	0.061544064	0.0011708158	0.00022737318
0.13795313	0.054426704	0.0010331022	0.00022736102
0.13815007	0.063921995	0.0012109933	0.00022736102
0.138347	0.060913704	0.0011560681	0.00022737318
0.13854393	0.056834534	0.0010737515	0.00022737318
0.13874087	0.061454546	0.001168056	0.00022736102
0.1389378	0.06064982	0.001148563	0.00022736102
0.13913473	0.061268363	0.0011562215	0.00022736673
0.13933168	0.066139467	0.0012500994	0.00022737318
0.13952862	0.063913822	0.0012074944	0.00022737318
0.13972555	0.072311044	0.00137464	0.00022736102
0.13992248	0.072701357	0.0013690022	0.00022736102
0.14011942	0.066690572	0.0012591303	0.00022736102
0.14031635	0.070100144	0.0013220119	0.00022737318
0.14051329	0.055297896	0.0010406728	0.00022736102
0.14071022	0.066379622	0.0012533166	0.00022736102
0.14090715	0.058114812	0.0010903813	0.00022736102
0.14110409	0.0674759	0.0012713313	0.00022736673
0.14130104	0.066476054	0.0012529135	0.00022736102
0.14149797	0.067328133	0.0012638746	0.00022736102
0.1416949	0.067399785	0.0012658929	0.00022734885
0.14189184	0.060070671	0.0011254023	0.00022736102
0.14208877	0.066428572	0.0012519716	0.00022736102
0.1422857	0.06380716	0.0011977698	0.00022736102
0.14248264	0.059670061	0.0011143559	0.00022736102
0.14267957	0.053900708	0.0010113592	0.00022736102
0.14287651	0.057644993	0.0010772647	0.00022736102
0.14307344	0.070417553	0.0013210961	0.00022735457
0.14327039	0.059732959	0.0011160796	0.00022736102
0.14346732	0.072836034	0.0013625269	0.00022734885
0.14366426	0.06949807	0.0012983162	0.00022734885
0.14386119	0.070551068	0.0013182218	0.00022736102
0.14405812	0.062697023	0.0011696187	0.00022734885
0.14425506	0.068364143	0.0012730364	0.00022734885
0.14445199	0.062434234	0.0011655071	0.00022734885
0.14464892	0.055458054	0.0010355196	0.00022734885
0.14484586	0.056656238	0.001052816	0.00022734885
0.14504279	0.056834031	0.0010576959	0.00022735457
0.14523974	0.057360057	0.0010625602	0.00022734885
0.14543667	0.059277445	0.0011057517	0.00022733668
0.14563361	0.057618883	0.001068783	0.00022734885
0.14583054	0.066736184	0.0012400236	0.00022734885
0.14602748	0.057419579	0.0010634754	0.00022734885
0.14622441	0.064382136	0.001194247	0.00022733668
0.14642134	0.062197652	0.0011525527	0.00022734885
0.14661828	0.059228651	0.0010956324	0.00022733668
0.14681521	0.056499135	0.0010484394	0.00022733668
0.14701214	0.061745431	0.0011432325	0.0002273424
0.14720909	0.058904581	0.0010897641	0.00022733668
0.14740603	0.05894519	0.0010908537	0.00022733668
0.14760296	0.066757493	0.0012282258	0.00022733668
0.14779989	0.055459868	0.0010258285	0.00022733668
0.14799683	0.054770928	0.0010129932	0.00022733668
0.14819376	0.060096152	0.0011100399	0.00022733668
0.1483907	0.052379321	0.00096569286	0.00022733668
0.14858763	0.057522126	0.0010578171	0.00022733668
0.14878456	0.055650979	0.0010281311	0.00022733668
0.1489815	0.048474576	0.00088911969	0.0002273424
0.14917845	0.046337306	0.00085184682	0.00022733668
0.14937538	0.047407914	0.00087197335	0.00022733668
0.14957231	0.05587538	0.0010248247	0.00022733668
0.14976925	0.05650685	0.0010424413	0.00022733668
0.14996618	0.046174586	0.00084461085	0.00022733668
0.15016311	0.055932205	0.0010260089	0.00022732452
0.15036005	0.060183611	0.0011057111	0.00022732452
0.15055698	0.052897573	0.00096751744	0.00022733668
0.15075392	0.04520734	0.00082999421	0.00022733668
0.15095085	0.051660515	0.0009418276	0.00022733024
0.1511478	0.050858874	0.00092954352	0.00022732452
0.15134473	0.054108895	0.00099124073	0.00022733668
0.15154167	0.052666891	0.00096119469	0.00022732452
0.1517386	0.055442866	0.0010161975	0.00022732452
0.15193553	0.049564634	0.00090387365	0.00022732452
0.15213247	0.052773111	0.00096438016	0.00022733668
0.1523294	0.04927925	0.00089897128	0.00022732452
0.15252633	0.064311899	0.0011707124	0.00022732452
0.15272327	0.04951489	0.00090234709	0.00022732452
0.1529202	0.046713378	0.00085020665	0.00022733024
0.15311715	0.057344064	0.0010468139	0.00022732452
0.15331408	0.056497175	0.0010266567	0.00022732452
0.15351102	0.05319149	0.0009665541	0.00022732452
0.15370795	0.054242928	0.00098618725	0.00022731235
0.15390489	0.049584027	0.00090105989	0.00022732452
0.15410182	0.04995038	0.00090522575	0.00022732452
0.15429875	0.051827241	0.00094131491	0.00022732452
0.15449569	0.043160692	0.00078315713	0.00022731235
0.15469262	0.037392456	0.00067718886	0.00022731235
0.15488955	0.044466402	0.00080384081	0.00022731809
0.1550865	0.051712781	0.00093534397	0.00022732452
0.15528344	0.051358517	0.00093165581	0.00022731235
0.15548037	0.053991389	0.00097918615	0.00022731235
0.1556773	0.045573771	0.00082172878	0.00022731235
0.15587424	0.049093906	0.00088797329	0.00022731235
0.15607117	0.04732376	0.00085163448	0.00022731235
0.1562681	0.049455985	0.00089456129	0.00022731235
0.15646504	0.052890934	0.00095548859	0.00022732452
0.15666197	0.051013734	0.00091935077	0.00022731235
0.15685891	0.048381824	0.00087138818	0.00022731809
0.15705585	0.056117456	0.0010102672	0.00022731235
0.15725279	0.050098233	0.00090306159	0.00022731235
0.15744972	0.059492849	0.0010691835	0.00022731235
0.15764666	0.046223957	0.00083071849	0.00022731235
0.15784359	0.052459016	0.00094658142	0.00022731235
0.15804052	0.041180287	0.00073822244	0.00022731235
0.15823746	0.052460086	0.00094350608	0.00022731235
0.15843439	0.053122986	0.00094989303	0.00022731235
0.15863132	0.051880676	0.00093063962	0.00022730019
0.15882826	0.055048861	0.00099035946	0.00022731809
0.15902521	0.053975437	0.00096712494	0.00022730019
0.15922214	0.06413994	0.0011507624	0.00022730019
0.15941907	0.055163566	0.00098434719	0.00022731235
0.15961601	0.055033993	0.0009868911	0.00022730019
0.15981294	0.047327753	0.00084617687	0.00022730019
0.16000988	0.048293624	0.00086312945	0.00022730019
0.16020681	0.05088567	0.00090967852	0.00022730019
0.16040374	0.045527413	0.00081160426	0.00022730019
0.16060068	0.050934881	0.00091121928	0.00022730019
0.16079761	0.049122807	0.0008737279	0.00022730592
0.16099456	0.055502392	0.00098798599	0.00022730019
0.16119149	0.048278082	0.00086294464	0.00022730019
0.16138843	0.046050526	0.00082014222	0.00022730019
0.16158536	0.04645947	0.00082836859	0.00022730019
0.16178229	0.055926278	0.0009935156	0.00022728802
0.16197923	0.052967455	0.00094261853	0.00022728802
0.16217616	0.046408139	0.0008239118	0.00022728802
0.1623731	0.046482012	0.00082580186	0.00022728802
0.16257003	0.05204697	0.0009237497	0.00022728802
0.16276696	0.04415502	0.00078385789	0.00022730592
0.16296391	0.052096568	0.00092472404	0.00022728802
0.16316085	0.050933249	0.00090261223	0.00022730019
0.16335778	0.049035117	0.00086885772	0.00022728802
0.16355471	0.048219349	0.00085288007	0.00022728802
0.16375165	0.044544868	0.00079689838	0.00022728802
0.16394858	0.043819491	0.00078908686	0.00022728802
0.16414551	0.052562848	0.00094653748	0.00022728802
0.16434245	0.054196961	0.00098132412	0.00022728802
0.16453938	0.043882977	0.00079671247	0.00022728802
0.16473632	0.049448714	0.00090016553	0.00022729376
0.16493326	0.051886793	0.00094854744	0.00022728802
0.1651302	0.052666891	0.00096095901	0.00022727586
0.16532713	0.050957594	0.0009381242	0.00022728802
0.16552407	0.044346649	0.00081233156	0.00022727586
0.165721	0.044745762	0.00082004152	0.00022728802
0.16591793	0.046000686	0.00084859534	0.00022727586
0.16611487	0.043195065	0.00079596887	0.00022727586
0.1663118	0.046527777	0.0008633695	0.00022728802
0.16650873	0.040907528	0.0007546944	0.00022728802
0.16670567	0.04443679	0.00082103547	0.00022728159
0.16690262	0.05036471	0.00093476719	0.00022727586
0.16709955	0.047021944	0.00087379344	0.00022727586
0.16729648	0.055126406	0.0010293978	0.00022727586
0.16749342	0.044568244	0.00082796457	0.00022727586
0.16769035	0.043022037	0.00080109591	0.00022727586
0.16788729	0.045550849	0.00085221103	0.00022727586
0.16808422	0.050764952	0.00094276533	0.00022727586
0.16828115	0.041799504	0.00078288553	0.00022727586
0.16847809	0.053740781	0.0010033326	0.00022726369
0.16867502	0.059813753	0.001127863	0.00022728159
0.16887197	0.056048244	0.0010514586	0.00022727586
0.1690689	0.051906779	0.00097137538	0.00022726369
0.16926584	0.051172707	0.00096068607	0.00022727586
0.16946277	0.058048435	0.0010913258	0.00022727586
0.1696597	0.052858684	0.00099817489	0.00022726369
0.16985664	0.047381546	0.00089059252	0.00022726369
0.17005357	0.05394784	0.0010159164	0.00022727586
0.17025051	0.051024076	0.00096324412	0.00022726369
0.17044744	0.055575475	0.0010483434	0.00022726369
0.17064437	0.045045044	0.00085132872	0.00022726943
0.17084132	0.047876172	0.00090426649	0.00022727586
0.17103826	0.046265937	0.00087902177	0.00022726369
0.17123519	0.046326458	0.00087744527	0.00022726369
0.17143212	0.044652503	0.00084329356	0.00022726369
0.17162906	0.054288816	0.0010289015	0.00022726369
0.17182599	0.047636233	0.00090135413	0.00022726369
0.17202292	0.045287188	0.00086496637	0.00022726369
0.17221986	0.044283122	0.00083962671	0.00022726369
0.17241679	0.041560337	0.00078939321	0.00022726369
0.17261373	0.045570545	0.00086632743	0.00022725726
0.17281067	0.048052419	0.00091292948	0.00022726369
0.17300761	0.04768892	0.00090943649	0.00022726369
0.17320454	0.04190962	0.00079574453	0.00022725153
0.17340147	0.049852289	0.00095387205	0.00022725153
0.17359841	0.045337263	0.00086645945	0.00022725153
0.17379534	0.042600073	0.0008122602	0.00022726369
0.17399228	0.046571326	0.00088796258	0.00022726369
0.17418921	0.045821115	0.00087303197	0.00022725153
0.17438614	0.045031633	0.00086487463	0.00022725153
0.17458308	0.047935102	0.00091626961	0.00022725726
0.17478003	0.04998149	0.00095779513	0.00022725153
0.17497696	0.044362292	0.00084908277	0.00022725153
0.17517389	0.038207199	0.00072838052	0.00022725153
0.17537083	0.047583364	0.00091683789	0.00022723936
0.17556776	0.043943871	0.00084051053	0.00022723936
0.17576469	0.045081966	0.00086614612	0.00022723936
0.17596163	0.040732436	0.00078326347	0.00022725153
0.17615856	0.042671613	0.00081792264	0.00022725153
0.1763555	0.043915149	0.00084301527	0.00022725153
0.17655243	0.041573867	0.00079690234	0.00022724509
0.17674938	0.053343352	0.0010295145	0.00022723936
0.17694631	0.043119609	0.00083039427	0.00022723936
0.17714325	0.041152265	0.00079182629	0.00022725153
0.17734018	0.036425084	0.00070143258	0.00022723936
0.17753711	0.042394944	0.00081323064	0.00022723936
0.17773405	0.04207363	0.00081131666	0.00022723936
0.17793098	0.04037736	0.00078000606	0.00022723936
0.17812791	0.048780486	0.00094112381	0.00022723936
0.17832485	0.045505829	0.00087839161	0.00022723936
0.17852178	0.04704554	0.00090838014	0.00022724509
0.17871873	0.04454511	0.0008612221	0.00022723936
0.17891566	0.0413845	0.00079820579	0.00022723936
0.1791126	0.046845485	0.00090588449	0.00022722721
0.17930953	0.048697621	0.00094209722	0.00022723936
0.17950647	0.03904473	0.00075570238	0.00022723936
0.1797034	0.05179584	0.0010029827	0.00022723936
0.17990033	0.046774801	0.00090395357	0.00022723936
0.18009727	0.038783271	0.00075202103	0.00022722721
0.1802942	0.057175312	0.0011082984	0.00022722721
0.18049113	0.050516646	0.0009838288	0.00022723294
0.18068808	0.057218645	0.001109755	0.00022722721
0.18088502	0.052292533	0.0010134659	0.00022722721
0.18108195	0.051067073	0.00099226425	0.00022722721
0.18127888	0.045610033	0.00088491209	0.00022722721
0.18147582	0.04274809	0.00083097286	0.00022722721
0.18167275	0.03983308	0.0007716447	0.00022722721
0.18186969	0.048659004	0.00094846106	0.00022722721
0.18206662	0.044478528	0.00086684048	0.00022722721
0.18226355	0.045798637	0.00088719011	0.00022721505
0.18246049	0.044879172	0.00087466429	0.00022723294
0.18265744	0.048109967	0.00093605043	0.00022721505
0.18285437	0.048424289	0.00094524003	0.00022722721
0.1830513	0.048864949	0.00095437019	0.00022722721
0.18324824	0.049523808	0.00096266228	0.00022721505
0.18344517	0.039200615	0.00076419389	0.00022721505
0.1836421	0.052914109	0.0010316464	0.00022721505
0.18383904	0.049230769	0.00096124987	0.00022721505
0.18403597	0.041506533	0.0008094458	0.00022721505
0.18423291	0.041554444	0.00081042614	0.00022721505
0.18442984	0.045718715	0.00089567975	0.00022722078
0.18462679	0.040644173	0.00079147983	0.00022721505
0.18482372	0.048206709	0.00094216107	0.00022721505
0.18502066	0.046502691	0.00090697809	0.00022721505
0.18521759	0.040989947	0.00080174691	0.00022721505
0.18541452	0.047637489	0.00093311392	0.00022721505
0.18561146	0.040107984	0.0007831931	0.00022721505
0.18580839	0.045875095	0.00089652976	0.00022721505
0.18600532	0.042198993	0.00082630053	0.00022720288
0.18620226	0.040357005	0.00079079508	0.00022721505
0.18639919	0.044539116	0.00087200711	0.00022722078
0.18659614	0.03992248	0.00078155502	0.00022720288
0.18679307	0.043291733	0.00085070846	0.00022720288
0.18699001	0.05179745	0.0010143142	0.00022720288
0.18718694	0.036950603	0.00072470703	0.00022720288
0.18738388	0.041474655	0.00080837321	0.00022720288
0.18758081	0.046292663	0.00091246894	0.00022721505
0.18777774	0.03925379	0.00076978654	0.00022720288
0.18797468	0.048676014	0.00095626339	0.00022720288
0.18817161	0.039360873	0.0007726326	0.00022719071
0.18836854	0.042956658	0.0008402979	0.00022720861
0.18856549	0.048387095	0.00095529167	0.00022719071
0.18876243	0.041261192	0.0008097922	0.00022720288
0.18895936	0.047563352	0.0009347648	0.00022720288
0.18915629	0.037905432	0.00074471021	0.00022719071
0.18935323	0.048028115	0.0009446161	0.00022719071
0.18955016	0.047469597	0.0009354158	0.00022720288
0.1897471	0.047804121	0.00093795202	0.00022719071
0.18994403	0.042644758	0.00083878706	0.00022720288
0.19014096	0.040173296	0.00079250778	0.00022719071
0.1903379	0.038925651	0.00076366833	0.00022719646
0.19053484	0.044899568	0.00088656781	0.00022719071
0.19073178	0.045171339	0.00088717515	0.00022719071
0.19092871	0.04130606	0.00081454637	0.00022719071
0.19112565	0.046245061	0.00091436191	0.00022719071
0.19132258	0.060405299	0.0011877007	0.00022719071
0.19151951	0.054745965	0.0010815895	0.00022719071
0.19171645	0.071091905	0.0014036304	0.00022719071
0.19191338	0.041748721	0.0008241146	0.00022717856
0.19211031	0.043921567	0.00086542766	0.00022719071
0.19230725	0.040047113	0.00078908342	0.00022719646
0.1925042	0.046843987	0.0009286853	0.00022719071
0.19270113	0.055074744	0.0010878236	0.00022719071
0.19289806	0.043324143	0.0008549107	0.00022719071
0.193095	0.04269487	0.00084040925	0.00022717856
0.19329193	0.04605002	0.0009131218	0.00022719071
0.19348887	0.047863923	0.0009474894	0.00022717856
0.1936858	0.032638617	0.00064287812	0.00022717856
0.19388273	0.0394633	0.00077946787	0.00022717856
0.19407967	0.040743671	0.00080587307	0.00022717856
0.1942766	0.043842167	0.00087065552	0.0002271843
0.19447355	0.044992175	0.00088541559	0.00022717856
0.19467048	0.041617122	0.00082406844	0.00022717856
0.19486742	0.042325951	0.00083752337	0.0002271664
0.19506435	0.046881206	0.00092790136	0.0002271664
0.19526128	0.041882727	0.00083189475	0.0002271664
0.19545822	0.039952997	0.00078668509	0.0002271664
0.19565515	0.046055265	0.00091719598	0.0002271664
0.19585209	0.037698414	0.00074665353	0.0002271664
0.19604902	0.04235946	0.00083829626	0.0002271664
0.19624595	0.048605576	0.00096520229	0.00022717213
0.1964429	0.044917259	0.00088709191	0.00022717856
0.19663984	0.03846154	0.00076497172	0.0002271664
0.19683677	0.041485578	0.00082008872	0.0002271664
0.1970337	0.03514377	0.00069699023	0.0002271664
0.19723064	0.047278505	0.00093758688	0.0002271664
0.19742757	0.041699763	0.00082660036	0.0002271664
0.1976245	0.041750301	0.00083210459	0.00022715423
0.19782144	0.040775929	0.00080698432	0.0002271664
0.19801837	0.040734824	0.00080981373	0.0002271664
0.19821531	0.048264857	0.00095942093	0.00022715998
0.19841225	0.042993631	0.00085356215	0.0002271664
0.19860919	0.043234587	0.00086067425	0.00022715423
0.19880612	0.044391599	0.00087928789	0.00022715423
0.19900306	0.051869724	0.0010352668	0.00022715423
0.19919999	0.047467094	0.00094333768	0.00022715423
0.19939692	0.054980081	0.0010926018	0.00022715423
0.19959386	0.051209677	0.0010236966	0.0002271664
0.19979079	0.051751591	0.001027739	0.00022715423
0.19998772	0.037274551	0.0007414085	0.00022715423
0.20018466	0.046650719	0.00092683162	0.00022715998
0.20038161	0.045034178	0.00089830649	0.00022715423
0.20057854	0.039615847	0.00078813283	0.00022715423
0.20077547	0.042748701	0.0008502542	0.00022715423
0.20097241	0.040676601	0.0008117003	0.00022715423
0.20116934	0.037140574	0.00073767349	0.00022715423
0.20136628	0.035412475	0.00070592429	0.00022714208
0.20156321	0.040432345	0.0008043992	0.00022715423
0.20176014	0.039097138	0.00078036083	0.00022714208
0.20195708	0.038831066	0.00077240728	0.00022715423
0.20215401	0.027276374	0.0005415359	0.00022715998
0.20235096	0.04148208	0.00082788256	0.00022714208
0.20254789	0.034013607	0.00067596062	0.00022714208
0.20274483	0.04097363	0.00082069007	0.00022714208
0.20294176	0.034013607	0.00067605538	0.00022714208
0.20313869	0.041228779	0.00082442985	0.00022714208
0.20333563	0.043636363	0.00087247416	0.00022714208
0.20353256	0.041417763	0.00082210469	0.00022712992
0.2037295	0.04630382	0.00092870527	0.00022712992
0.20392643	0.046055265	0.00091726606	0.00022714208
0.20412336	0.04383117	0.00087855232	0.00022714782
0.20432031	0.037887949	0.00075631769	0.00022714208
0.20451725	0.050521251	0.0010071152	0.00022714208
0.20471418	0.043866776	0.00087954698	0.00022712992
0.20491111	0.052379049	0.0010431458	0.00022714208
0.20510805	0.041040227	0.00082269195	0.00022712992
0.20530498	0.044426493	0.00088834442	0.00022712992
0.20550191	0.044560418	0.00088838191	0.00022712992
0.20569885	0.044489797	0.00089404313	0.00022712992
0.20589578	0.042101044	0.00083856232	0.00022712992
0.20609272	0.046435844	0.00093282567	0.00022713565
0.20628966	0.051995162	0.001039025	0.00022712992
0.2064866	0.044219065	0.00088619528	0.00022711777
0.20668353	0.038617887	0.00077396614	0.00022712992
0.20688047	0.039484289	0.00078790192	0.00022712992
0.2070774	0.043760128	0.00087634113	0.00022711777
0.20727433	0.040676601	0.00081202236	0.00022711777
0.20747127	0.046435844	0.00093260821	0.00022711777
0.2076682	0.048334688	0.00096911477	0.00022712992
0.20786513	0.04244139	0.00084875268	0.00022712992
0.20806207	0.041530944	0.00083359214	0.0002271235
0.20825902	0.043601129	0.00087171962	0.00022711777
0.20845595	0.047269765	0.00094971649	0.00022711777
0.20865288	0.044848483	0.00089664373	0.00022711777
0.20884982	0.049407922	0.00099357264	0.00022711777
0.20904675	0.042717658	0.00085705455	0.00022711777
0.20924369	0.043002028	0.00086158456	0.0002271056
0.20944062	0.046982583	0.0009407911	0.00022711777
0.20963755	0.048236724	0.0009665144	0.00022711777
0.20983449	0.044819079	0.00090383453	0.00022711777
0.21003142	0.058035713	0.0011647301	0.00022711133
0.21022837	0.052931596	0.0010632211	0.00022711777
0.2104253	0.046454769	0.00093296077	0.00022711777
0.21062224	0.035469569	0.00070753985	0.0002271056
0.21081917	0.040791102	0.00082304294	0.0002271056
0.2110161	0.045344129	0.00090774399	0.0002271056
0.21121304	0.047638435	0.00095670851	0.0002271056
0.21140997	0.046473704	0.00093389431	0.0002271056
0.2116069	0.03390523	0.00068066648	0.0002271056
0.21180384	0.037658617	0.00075736782	0.0002271056
0.21200077	0.050909091	0.0010188656	0.00022711133
0.21219772	0.045267489	0.00091361516	0.00022709343
0.21239465	0.040262941	0.0008108989	0.0002271056
0.21259159	0.035337124	0.00070783606	0.0002271056
0.21278852	0.043673471	0.00087706634	0.0002271056
0.21298546	0.032061689	0.00064151356	0.00022709343
0.21318239	0.036303632	0.0007327419	0.00022709343
0.21337932	0.038149349	0.00076363416	0.00022709343
0.21357626	0.037188392	0.00074696797	0.0002271056
0.21377319	0.041683864	0.00084187323	0.0002271056
0.21397012	0.043549042	0.000873552	0.00022709918
0.21416707	0.035553738	0.00071445102	0.00022709343
0.21436401	0.03913575	0.00078578078	0.00022709343
0.21456094	0.043549713	0.00087809918	0.00022709343
0.21475787	0.036945812	0.00074398459	0.00022708128
0.21495481	0.040866368	0.00082199211	0.00022709343
0.21515174	0.04055715	0.00081656134	0.00022709343
0.21534868	0.041342612	0.0008320497	0.00022708128
0.21554561	0.042815972	0.00086400891	0.00022709343
0.21574254	0.037173204	0.00074687554	0.00022708128
0.21593948	0.043621399	0.00088050612	0.00022709918
0.21613643	0.043513957	0.00087709673	0.00022708128
0.21633336	0.0401804	0.00080917362	0.00022708128
0.21653029	0.04149548	0.00083642075	0.00022708128
0.21672723	0.040391676	0.00081114977	0.00022709343
0.21692416	0.044536084	0.00089967827	0.00022708128
0.21712109	0.047638603	0.00096042268	0.00022708128
0.21731803	0.042299796	0.00085224176	0.00022708128
0.21751496	0.03828736	0.00077210623	0.00022708128
0.2177119	0.038289204	0.00076757354	0.00022708128
0.21790883	0.042791858	0.00086682686	0.00022708702
0.21810578	0.035947714	0.00072161335	0.00022708128
0.21830271	0.036776859	0.00074296794	0.00022708128
0.21849965	0.0345679	0.00069610117	0.00022706912
0.21869658	0.050327331	0.0010134653	0.00022708128
0.21889351	0.04145937	0.00083910173	0.00022706912
0.21909045	0.039737813	0.00079927902	0.00022706912
0.21928738	0.043334708	0.00087561383	0.00022706912
0.21948431	0.048267327	0.00097543019	0.00022706912
0.21968125	0.03329223	0.0006705983	0.00022706912
0.21987818	0.047049113	0.00095070299	0.00022707487
0.22007513	0.044617273	0.00089804176	0.00022706912
0.22027206	0.046038989	0.00093266321	0.00022706912
0.220469	0.037766829	0.00076081709	0.00022706912
0.22066593	0.050910596	0.0010304487	0.00022705697
0.22086287	0.042404283	0.00085564668	0.00022705697
0.2210598	0.032962505	0.00066408556	0.00022705697
0.22125673	0.043028548	0.00087020808	0.00022705697
0.22145367	0.048347108	0.00097784994	0.00022705697
0.2216506	0.038429752	0.00077614526	0.00022706912
0.22184753	0.03621399	0.00073022034	0.00022707487
0.22204448	0.039004151	0.00079008017	0.00022705697
0.22224142	0.031765677	0.00064090604	0.00022705697
0.22243835	0.035463918	0.00071571948	0.00022705697
0.22263528	0.039800994	0.0008056385	0.00022705697
0.22283222	0.040707238	0.00082084473	0.00022704482
0.22302915	0.037885096	0.00076815387	0.00022705697
0.22322609	0.041718297	0.00084266579	0.00022704482
0.22342302	0.041512538	0.00083677052	0.00022704482
0.22361995	0.037359901	0.00075633993	0.00022705697
0.22381689	0.03468208	0.00069995591	0.0002270627
0.22401384	0.038830899	0.00078851596	0.00022704482
0.22421077	0.04238683	0.00085471082	0.00022704482
0.2244077	0.03809524	0.00077048718	0.00022704482
0.22460464	0.034540158	0.00069987826	0.00022704482
0.22480157	0.042710472	0.00086073653	0.00022704482
0.2249985	0.048637316	0.00099138194	0.00022704482
0.22519544	0.040573772	0.00081655761	0.00022704482
0.22539237	0.036174636	0.00073285803	0.00022704482
0.22558931	0.03889586	0.00079058832	0.00022704482
0.22578624	0.036779732	0.00073915767	0.00022703838
0.22598319	0.029154519	0.00059011357	0.00022703265
0.22618012	0.03141794	0.00063415017	0.00022704482
0.22637706	0.031812474	0.00064579363	0.00022704482
0.22657399	0.041856609	0.00084744889	0.00022703265
0.22677092	0.034411278	0.00069627137	0.00022703265
0.22696786	0.038142622	0.00077201764	0.00022703265
0.22716479	0.043892339	0.00088824378	0.00022704482
0.22736172	0.050606441	0.001030304	0.00022703265
0.22755866	0.048760332	0.00098633138	0.00022703265
0.22775559	0.03426661	0.00069561345	0.00022703265
0.22795253	0.046849087	0.00094868621	0.00022703838
0.22814947	0.045265779	0.00091675756	0.00022703265
0.22834641	0.046019901	0.00093170069	0.00022703265
0.22854334	0.045284588	0.00091717253	0.0002270205
0.22874027	0.043715846	0.00089047663	0.00022703265
0.22893721	0.048287246	0.00097581802	0.00022703265
0.22913414	0.050332777	0.0010214634	0.0002270205
0.22933108	0.040282391	0.00081550429	0.0002270205
0.22952801	0.034597751	0.0007019394	0.0002270205
0.22972494	0.041649312	0.00084538868	0.0002270205
0.22992188	0.047678277	0.00096611114	0.00022703838
0.23011883	0.03381234	0.00068982661	0.0002270205
0.23031576	0.037572253	0.00075856474	0.0002270205
0.23051269	0.034956306	0.00070837681	0.0002270205
0.23070963	0.039166667	0.00079475087	0.0002270205
0.23090656	0.031923715	0.00064569555	0.00022700834
0.23110349	0.041946311	0.00085444859	0.00022700834
0.23130043	0.037964121	0.00077055895	0.0002270205
0.23149736	0.036189683	0.00073321722	0.0002270205
0.2316943	0.044695072	0.00090850587	0.0002270205
0.23189123	0.04275633	0.00086657365	0.00022701408
0.23208818	0.042330261	0.00086153421	0.00022700834
0.23228511	0.037052456	0.00075181643	0.00022700834
0.23248205	0.027580444	0.00055911357	0.00022700834
0.23267898	0.034771681	0.00070682383	0.00022700834
0.23287591	0.035743974	0.00072411622	0.00022700834
0.23307285	0.030531159	0.00061963452	0.00022700834
0.23326978	0.035863221	0.00072754396	0.00022700834
0.23346671	0.040066779	0.00081309699	0.00022700834
0.23366365	0.031959631	0.00065005146	0.00022700834
0.23386058	0.033388983	0.00067690964	0.00022701408
0.23405753	0.040875308	0.00082525203	0.00022699618
0.23425446	0.034076568	0.00069411687	0.00022700834
0.2344514	0.038590603	0.0007854724	0.00022699618
0.23464833	0.029251985	0.00059344486	0.00022699618
0.23484527	0.024247492	0.00049069407	0.00022700834
0.2350422	0.022993311	0.00046499481	0.00022700834
0.23523913	0.029819403	0.00060642976	0.00022699618
0.23543607	0.028726062	0.00058136199	0.00022699618
0.235633	0.034280937	0.00069594471	0.00022699618
0.23582993	0.036866359	0.00074916007	0.00022700192
0.23602688	0.032000002	0.0006516276	0.00022698403
0.23622382	0.045852438	0.00093107228	0.00022699618
0.23642075	0.036310516	0.00073679426	0.00022699618
0.23661768	0.031852473	0.00064701214	0.00022698403
0.23681462	0.03577441	0.00072902878	0.00022698403
0.23701155	0.033848725	0.00068652834	0.00022699618
0.23720849	0.030075189	0.00060956384	0.00022698403
0.23740542	0.034424853	0.00070054387	0.00022699618
0.23760235	0.032704402	0.00066495046	0.00022698403
0.23779929	0.035279293	0.00071842514	0.00022698977
0.23799624	0.035475794	0.00072032248	0.00022698403
0.23819317	0.034468263	0.00070218707	0.00022698403
0.2383901	0.036523931	0.00074340001	0.00022698403
0.23858704	0.038542103	0.00078417955	0.00022698403
0.23878397	0.043587595	0.00088739063	0.00022698403
0.2389809	0.03397651	0.00069106155	0.00022697187
0.23917784	0.0395124	0.00080492953	0.00022697187
0.23937477	0.03748947	0.00076486508	0.00022698403
0.23957171	0.037688442	0.00076634006	0.00022697187
0.23976864	0.042118434	0.0008550745	0.00022697762
0.23996559	0.038736843	0.00079003657	0.00022697187
0.24016252	0.029610829	0.00060389843	0.00022697187
0.24035946	0.035790369	0.00073367322	0.00022697187
0.24055639	0.032967035	0.00067230366	0.00022697187
0.24075332	0.033645656	0.00068930641	0.00022697187
0.24095026	0.044187043	0.00090974354	0.00022697187
0.24114719	0.036595743	0.00074995129	0.00022697187
0.24134412	0.041970022	0.0008632025	0.00022697187
0.24154106	0.033649698	0.00069399184	0.00022697187
0.24173799	0.03841174	0.00079296227	0.00022696547
0.24193494	0.036892362	0.00076400815	0.00022697187
0.24213187	0.038726334	0.00079801795	0.00022695972
0.24232881	0.031919546	0.00066238403	0.00022697187
0.24252574	0.032794055	0.00068044616	0.00022695972
0.24272268	0.031441048	0.00065194635	0.00022695972
0.24291961	0.026860414	0.00055866851	0.00022695972
0.24311654	0.03437772	0.00071239163	0.00022695972
0.24331348	0.033318523	0.00069734047	0.00022695972
0.24351041	0.030864198	0.00064305007	0.00022695972
0.24370734	0.035651408	0.00074302318	0.00022696547
0.24390429	0.043594304	0.00091409113	0.00022695972
0.24410123	0.03846154	0.00080726249	0.00022695972
0.24429816	0.037300177	0.00078047899	0.00022694757
0.24449509	0.037460029	0.00079557981	0.00022694757
0.24469203	0.038709678	0.00082597055	0.00022695972
0.24488896	0.030459231	0.00065410568	0.00022694757
0.2450859	0.029149037	0.0006260681	0.00022694757
0.24528283	0.029815428	0.00064311089	0.00022694757
0.24547976	0.033857893	0.00073387456	0.00022694757
0.2456767	0.027430221	0.00059601758	0.0002269533
0.24587364	0.032708034	0.00071128213	0.00022694757
0.24607058	0.038368139	0.00083984609	0.0002269354
0.24626751	0.03391473	0.00074056676	0.00022694757
0.24646445	0.034465779	0.0007586921	0.00022694757
0.24666138	0.038820639	0.00085335941	0.00022694757
0.24685831	0.041440554	0.00091425795	0.0002269354
0.24705525	0.033780426	0.00074688281	0.0002269354
0.24725218	0.041437842	0.00091970764	0.0002269354
0.24744911	0.041226748	0.00091759622	0.00022694757
0.24764605	0.035982009	0.00079834985	0.00022694115
0.247843	0.039778449	0.00088643859	0.0002269354
0.24803993	0.042944785	0.00096380169	0.0002269354
0.24823686	0.041517172	0.0009329142	0.0002269354
0.2484338	0.037678208	0.00084355264	0.00022692325
0.24863073	0.031893004	0.00071691599	0.0002269354
0.24882767	0.030864198	0.00069354981	0.00022692325
0.2490246	0.031557165	0.00071126258	0.00022692325
0.24922153	0.031870428	0.00072148611	0.00022692325
0.24941847	0.034250129	0.0007734113	0.00022692325
0.2496154	0.035318926	0.00080432149	0.000226929
0.24981235	0.027455121	0.00062422286	0.00022692965
0.25000927	0.033420365	0.000757539	0.00022692325
0.2502062	0.026133334	0.0005967301	0.0002269354
0.25040314	0.027012711	0.00061475183	0.0002269111
0.25060007	0.035694972	0.00082229514	0.0002269226
0.25079703	0.0357906	0.00081825664	0.0002269111
0.25099397	0.03976357	0.00091540563	0.0002269111
0.2511909	0.046120457	0.0010669176	0.0002269111
0.25138783	0.039310716	0.00090551574	0.0002269111
0.25158477	0.037602179	0.00087016477	0.0002269111
0.2517817	0.034388646	0.0007954145	0.0002269111
0.25197864	0.039452054	0.00091588177	0.0002269111
0.25217557	0.03933518	0.00091826956	0.0002269111
0.2523725	0.027442371	0.00063557894	0.0002269111
0.25256944	0.038354643	0.00089661108	0.0002269111
0.25276637	0.031649083	0.00073847634	0.0002269111
0.2529633	0.035734225	0.00083736499	0.0002268868
0.25316024	0.032657657	0.00076774118	0.0002269111
0.25335717	0.034678794	0.00081894011	0.0002269111
0.25355411	0.029291155	0.00070088985	0.0002269111
0.25375104	0.032490976	0.00078814582	0.0002269111
0.25394797	0.035024155	0.00085218577	0.0002268868
0.25414491	0.042383291	0.0010411089	0.0002269111
0.25434184	0.036053132	0.00089817814	0.0002269111
0.25453877	0.0390625	0.0009878428	0.0002269226
0.25473574	0.0402955	0.0010346994	0.0002268868
0.25493267	0.042234331	0.001092307	0.0002269111
0.25512961	0.053546593	0.0014016668	0.0002269111
0.25532654	0.034066714	0.00089717866	0.0002269111
0.25552347	0.032774944	0.00087274128	0.0002268868
0.25572041	0.037121214	0.0010099096	0.0002269111
0.25591734	0.035656404	0.0010022456	0.0002269111
0.25611427	0.031814273	0.00091921317	0.0002268868
0.25631121	0.038356163	0.0011450949	0.0002268868
0.25650814	0.040527806	0.0012275142	0.0002268868
0.25670508	0.035818007	0.0010989696	0.0002268868
0.25690201	0.031712472	0.0010107642	0.0002268868
0.25709894	0.033670034	0.001101973	0.0002268868
0.25729588	0.027154664	0.00091126916	0.0002268868
0.25749281	0.033573143	0.0011407675	0.0002268868
0.25768974	0.031446543	0.0010897974	0.0002268868
0.25788668	0.032341525	0.0011366715	0.0002268868
0.25808361	0.030707611	0.001091572	0.0002268868
0.25828055	0.02872777	0.0010351643	0.0002268868
0.25847748	0.03576538	0.0013219598	0.00022689829
0.25867444	0.037845705	0.001410341	0.00022686248
0.25887138	0.033639144	0.0012805555	0.00022686248
0.25906831	0.029320987	0.0011120966	0.00022686248
0.25926524	0.025356578	0.00096584688	0.0002268868
0.25946218	0.036789298	0.001461484	0.00022686248
0.25965911	0.044142615	0.0017740406	0.0002268868
0.25985605	0.032928944	0.001335445	0.0002268868
0.26005298	0.036458332	0.0014802386	0.00022686248
0.26024991	0.043706294	0.0017831142	0.00022686248
0.26044685	0.04107143	0.0016888499	0.0002268868
0.26064378	0.039215688	0.0016120402	0.00022686248
0.26084071	0.048561152	0.0020198901	0.00022686248
0.26103765	0.057090238	0.0024019612	0.00022686248
0.26123458	0.04074074	0.0017070436	0.00022686248
0.26143152	0.028301887	0.0011887922	0.0002268868
0.26162845	0.029574862	0.0012167848	0.00022686248
0.26182538	0.024856597	0.0010317747	0.00022686248
0.26202232	0.046966732	0.0020359333	0.00022686248
0.26221925	0.023809524	0.0010164182	0.00022686248
0.26241618	0.045889102	0.0019626569	0.00022684968
0.26261315	0.035714287	0.0015424896	0.00022683818
0.26281008	0.034552846	0.0015072178	0.00022686248
0.26300701	0.018480493	0.00079034944	0.00022686248
0.26320395	0.028169014	0.0012188168	0.00022683818
0.26340088	0.014799154	0.00063065597	0.00022686248
0.26359782	0.029288704	0.0012922562	0.00022683818
0.26379475	0.025641026	0.0011360113	0.00022686248
0.26399168	0.032051284	0.0014260258	0.00022683818
0.26418862	0.039130434	0.0017633531	0.00022683818
0.26438555	0.031319909	0.0014212199	0.00022683818
0.26458248	0.032036614	0.0014784648	0.00022683818
0.26477942	0.029147983	0.0013190021	0.00022683818
0.26497635	0.046620045	0.0021906183	0.00022686248
0.26517329	0.044289045	0.0020836936	0.00022683818
0.26537022	0.06356968	0.0030860526	0.00022683818
0.26556715	0.036057692	0.0017099848	0.00022683818
0.26576409	0.024752475	0.0011697346	0.00022683818
0.26596102	0.022727273	0.0010781334	0.00022683818
0.26615795	0.041450776	0.0020369051	0.00022683818
0.26635489	0.035805628	0.0017471357	0.00022684968
0.26655185	0.018567638	0.00088652171	0.00022681388
0.26674879	0.032876711	0.001649846	0.00022683818
0.26694572	0.027027028	0.0013347698	0.00022683818
0.26714265	0.030136986	0.0014923419	0.00022681388
0.26733959	0.031073445	0.0015769057	0.00022681388
0.26753652	0.031428572	0.0016040413	0.00022681388
0.26773345	0.024169184	0.0012445406	0.00022683818
0.26793039	0.020895522	0.0010585383	0.00022683818
0.26812732	0.032544378	0.0016903034	0.00022683818
0.26832426	0.03125	0.001659877	0.00022683818
0.26852119	0.025396826	0.0013406599	0.00022683818
0.26871812	0.028938906	0.0015496192	0.00022683818
0.26891506	0.025723472	0.0013666357	0.00022681388
0.26911199	0.02020202	0.0010719099	0.00022683818
0.26930892	0.03691275	0.0020422169	0.00022683818
0.26950586	0.051903114	0.0029547149	0.00022683818
0.26970279	0.058419243	0.00332807	0.00022681388
0.26989973	0.039855074	0.0022705779	0.00022681388
0.27009666	0.018726591	0.0010269822	0.00022681388
0.27029359	0.019083969	0.0010565583	0.00022684968
0.27049056	0.025641026	0.0014393869	0.00022681388
0.27068749	0.019455252	0.0010875817	0.00022681388
0.27088442	0.024096385	0.0013968039	0.00022681388
0.27108136	0.016736401	0.00093951618	0.00022681388
0.27127829	0.021008404	0.0012205733	0.00022681388
0.27147523	0.028368793	0.0018954697	0.00022681388
0.27167216	0.022727273	0.0017229501	0.00022681388
0.27186909	0.020408163	0	0.00022681388
0.27206603	0	0	0.00022681388
0.27226296	0	0	0.00022681388
